        1562
        3863
        6117
        8372
       10615
       12875
       15128
       17382
       19653
       21918
       24191
       26470
       28765
       31067
       33363
       35663
       37953
       40244
       42533
       44832
       47134
       49436
       51747
       54047
       56335
       58596
       60941
       63243
       65581
       67913
       70252
       72594
       74931
       77271
       79612
       81950
       84287
       86614
       88947
       91282
       93626
       95968
       98313
      100658
      103003
      105343
      107684
      109999
      112344
      114671
      117014
      119366
      121714
      124074
      126430
      128779
      131146
      133502
      135869
      138220
      140570
      142912
      145259
      147610
      149958
      152306
      154648
      156986
      159325
      161670
      164002
      166346
      168678
      171016
      173348
      175681
      178019
      180354
      182687
      185022
      187353
      189697
      192023
      194366
      196703
      199042
      201384
      203721
      206056
      208394
      210729
      213053
      215391
      217724
      220068
      222396
      224733
      227063
      229405
      231738
      234077
      236415
      238748
      241082
      243420
      245763
      248098
      250429
      252767
      255106
      257451
      259790
      262136
      264471
      266811
      269149
      271488
      273829
      276167
      278503
      280841
      283183
      285528
      287862
      290208
      292549
      294893
      297231
      299561
      301904
      304244
      306592
      308929
      311276
      313610
      315954
      318291
      320632
      322971
      325289
      327619
      329958
      332278
      334611
      336937
      339268
      341596
      343927
      346258
      348545
      350846
      353143
      355434
      357733
      360029
      362320
      364623
      366916
      369228
      371528
      373839
      376153
      378473
      380792
      383106
      385425
      387758
      390090
      392433
      394782
      397133
      399479
      401843
      404204
      406566
      408934
      411285
      413618
      415944
      418278
      420601
      422937
      425264
      427596
      429914
      432251
      434583
      436908
      439237
      441571
      443906
      446239
      448565
      450898
      453240
      455574
      457911
      460246
      462575
      464910
      467240
      469571
      471901
      474231
      476564
      478885
      481207
      483541
      485878
      488209
      490537
      492859
      495183
      497514
      499839
      502177
      504505
      506832
      509156
      511484
      513807
      516137
      518457
      520790
      523114
      525443
      527766
      530086
      532403
      534722
      537037
      539349
      541668
      543991
      546305
      548627
      550939
      553259
      555581
      557901
      560231
      562567
      564889
      567228
      569561
      571888
      574216
      576541
      578871
      581199
      583531
      585859
      588190
      590525
      592854
      595176
      597516
      599846
      602183
      604525
      606866
      609199
      611535
      613863
      616201
      618531
      620857
      623191
      625521
      627850
      630185
      632511
      634828
      637152
      639472
      641775
      644096
      646402
      648715
      651025
      653330
      655646
      657955
      660275
      662592
      664906
      667214
      669529
      671848
      674172
      676484
      678799
      681121
      683432
      685759
      688075
      690398
      692727
      695052
      697376
      699695
      702007
      704342
      706674
      708990
      711175
      713478
      715657
      717856
      720036
      722233
      724433
      726659
      728929
      731223
      733548
      735874
      738216
      740553
      742793
      745086
      747296
      749528
      751749
      753975
      756208
      758445
      760685
      762939
      765194
      767458
      769722
      772007
      774299
      776606
      778913
      781229
      783540
      785858
      788185
      790508
      792839
      795180
      797494
      799837
      802166
      804496
      806843
      809175
      811511
      813847
      816193
      818544
      820879
      823234
      825573
      827922
      830249
      832582
      834920
      837247
      839595
      841946
      844300
      846649
      849001
      851349
      853693
      856037
      858381
      860717
      863054
      865391
      867724
      870066
      872410
      874751
      877091
      879423
      881758
      884101
      886437
      888777
      891111
      893448
      895786
      898125
      900460
      902795
      905126
      907464
      909795
      912126
      914458
      916785
      919112
      921450
      923779
      926116
      928453
      930782
      933109
      935442
      937764
      940104
      942435
      944775
      947104
      949433
      951763
      954095
      956429
      958761
      961097
      963433
      965756
      968086
      970410
      972733
      975064
      977399
      979728
      982061
      984384
      986705
      989036
      991327
      993631
      995923
      998200
     1000494
     1002779
     1005070
     1007347
     1009639
     1011919
     1014207
     1016490
     1018778
     1021070
     1023354
     1025648
     1027941
     1030222
     1032497
     1034760
     1037057
     1039336
     1041604
     1043859
     1046115
     1048363
     1050618
     1052873
     1055129
     1057387
     1059648
     1061911
     1064172
     1066440
     1068709
     1070977
     1073251
     1075518
     1077784
     1080054
     1082322
     1084594
     1086866
     1089142
     1091413
     1093688
     1095957
     1098231
     1100502
     1102778
     1105054
     1107330
     1109601
     1111877
     1114151
     1116429
     1118696
     1120977
     1123250
     1125521
     1127797
     1130067
     1132343
     1134615
     1136891
     1139164
     1141438
     1143719
     1145998
     1148278
     1150557
     1152834
     1155110
     1157393
     1159673
     1161949
     1164231
     1166513
     1168801
     1170963
     1173214
     1175397
     1177601
     1179792
     1181993
     1184174
     1186379
     1188577
     1190789
     1193014
     1195241
     1197473
     1199727
     1201986
     1204267
     1206571
     1208873
     1211188
     1213523
     1215855
     1218189
     1220531
     1222840
     1225144
     1227445
     1229753
     1232052
     1234355
     1236662
     1238972
     1241285
     1243600
     1245919
     1248230
     1250546
     1252860
     1255175
     1257482
     1259793
     1262109
     1264425
     1266742
     1269062
     1271384
     1273704
     1276025
     1278349
     1280674
     1283008
     1285339
     1287673
     1290002
     1292340
     1294672
     1297002
     1299327
     1301657
     1303984
     1306309
     1308649
     1310983
     1313320
     1315654
     1317987
     1320328
     1322665
     1325007
     1327347
     1329691
     1332041
     1334386
     1336726
     1339064
     1341405
     1343749
     1346094
     1348441
     1350789
     1353140
     1355488
     1357832
     1360178
     1362519
     1364862
     1367205
     1369547
     1371892
     1374235
     1376585
     1378928
     1381267
     1383597
     1385820
     1388091
     1390347
     1392604
     1394865
     1397131
     1399399
     1401672
     1403941
     1406223
     1408511
     1410802
     1413048
     1415278
     1417517
     1419755
     1421993
     1424243
     1426502
     1428770
     1431043
     1433328
     1435618
     1437936
     1440254
     1442581
     1444917
     1447274
     1449612
     1451964
     1454331
     1456688
     1459051
     1461416
     1463759
     1466108
     1468452
     1470786
     1473125
     1475471
     1477796
     1480138
     1482465
     1484801
     1487136
     1489476
     1491806
     1494161
     1496499
     1498838
     1501174
     1503516
     1505853
     1508206
     1510520
     1512867
     1515168
     1517470
     1519765
     1522065
     1524375
     1526727
     1529079
     1531437
     1533813
     1536167
     1538517
     1540862
     1543210
     1545554
     1547905
     1550235
     1552584
     1554934
     1557291
     1559644
     1562001
     1564348
     1566709
     1569044
     1571394
     1573762
     1576118
     1578467
     1580818
     1583176
     1585533
     1587886
     1590227
     1592575
     1594919
     1597201
     1599499
     1601794
     1604088
     1606393
     1608698
     1611013
     1613328
     1615653
     1617984
     1620315
     1622645
     1624971
     1627299
     1629606
     1631925
     1634256
     1636602
     1638949
     1641298
     1643632
     1645968
     1648292
     1650524
     1652754
     1654997
     1657219
     1659462
     1661695
     1663935
     1666184
     1668430
     1670686
     1672959
     1675221
     1677508
     1679797
     1682099
     1684414
     1686738
     1689070
     1691407
     1693732
     1696066
     1698405
     1700733
     1703082
     1705406
     1707737
     1710053
     1712382
     1714714
     1717040
     1719375
     1721712
     1724059
     1726402
     1728747
     1731090
     1733445
     1735784
     1738132
     1740469
     1742825
     1745160
     1747493
     1749851
     1752205
     1754534
     1756884
     1759214
     1761554
     1763894
     1766222
     1768563
     1770894
     1773224
     1775562
     1777897
     1780252
     1782590
     1784912
     1787267
     1789608
     1791947
     1794284
     1796639
     1798976
     1801315
     1803641
     1805984
     1808309
     1810636
     1812965
     1815297
     1817621
     1819958
     1822302
     1824643
     1826988
     1829328
     1831665
     1834005
     1836344
     1838694
     1841037
     1843369
     1845712
     1848057
     1850394
     1852732
     1855075
     1857414
     1859758
     1862097
     1864448
     1866786
     1869124
     1871460
     1873796
     1876123
     1878449
     1880787
     1883121
     1885461
     1887800
     1890135
     1892478
     1894814
     1897156
     1899501
     1901839
     1904179
     1906520
     1908863
     1911209
     1913545
     1915888
     1918238
     1920564
     1922900
     1925226
     1927550
     1929891
     1932232
     1934563
     1936913
     1939247
     1941580
     1943907
     1946235
     1948562
     1950901
     1953221
     1955550
     1957868
     1960198
     1962536
     1964876
     1967214
     1969544
     1971874
     1974091
     1976423
     1978643
     1980891
     1983112
     1985343
     1987558
     1989801
     1992014
     1994241
     1996482
     1998708
     2000944
     2003196
     2005429
     2007690
     2009945
     2012208
     2014481
     2016769
     2019056
     2021367
     2023687
     2026047
     2028404
     2030749
     2033078
     2035399
     2037724
     2040051
     2042379
     2044710
     2047032
     2049358
     2051691
     2054029
     2056362
     2058697
     2061018
     2063336
     2065668
     2067996
     2070321
     2072651
     2074967
     2077280
     2079617
     2081932
     2084254
     2086575
     2088894
     2091229
     2093546
     2095866
     2098193
     2100507
     2102834
     2105147
     2107470
     2109799
     2112120
     2114454
     2116783
     2119110
     2121433
     2123755
     2126083
     2128410
     2130730
     2133058
     2135381
     2137715
     2140042
     2142378
     2144706
     2147039
     2149363
     2151691
     2154033
     2156367
     2158718
     2161059
     2163398
     2165722
     2168057
     2170384
     2172723
     2175065
     2177403
     2179738
     2182063
     2184388
     2186715
     2189029
     2191353
     2193679
     2195998
     2198319
     2200637
     2202956
     2205266
     2207584
     2209893
     2212196
     2214498
     2216805
     2219116
     2221419
     2223730
     2226034
     2228339
     2230627
     2232927
     2235233
     2237535
     2239846
     2242148
     2244453
     2246749
     2249046
     2251354
     2253647
     2255941
     2258235
     2260527
     2262829
     2265116
     2267420
     2269698
     2271997
     2274285
     2276583
     2278872
     2281155
     2283442
     2285724
     2288011
     2290290
     2292579
     2294863
     2297147
     2299427
     2301698
     2303989
     2306265
     2308551
     2310835
     2313121
     2315408
     2317690
     2319976
     2322255
     2324541
     2326827
     2329113
     2331405
     2333687
     2335977
     2338269
     2340557
     2342843
     2345126
     2347419
     2349708
     2351998
     2354288
     2356585
     2358878
     2361191
     2363482
     2365779
     2368077
     2370379
     2372678
     2374983
     2377292
     2379578
     2381871
     2384155
     2386440
     2388749
     2391040
     2393344
     2395643
     2397954
     2400263
     2402576
     2404896
     2407219
     2409547
     2411874
     2414205
     2416528
     2418851
     2421183
     2423504
     2425850
     2428178
     2430513
     2432847
     2435184
     2437513
     2439858
     2442195
     2444534
     2446868
     2449209
     2451547
     2453886
     2456231
     2458574
     2460918
     2463260
     2465607
     2467944
     2470291
     2472635
     2474963
     2477310
     2479657
     2482004
     2484351
     2486697
     2489046
     2491387
     2493741
     2496093
     2498440
     2500787
     2503145
     2505496
     2507837
     2510178
     2512537
     2514884
     2517234
     2519583
     2521929
     2524262
     2526608
     2528937
     2531276
     2533609
     2535929
     2538255
     2540585
     2542925
     2545264
     2547595
     2549932
     2552250
     2554581
     2556912
     2559247
     2561579
     2563909
     2566246
     2568569
     2570903
     2573239
     2575575
     2577909
     2580236
     2582572
     2584901
     2587230
     2589565
     2591894
     2594236
     2596566
     2598889
     2601219
     2603545
     2605895
     2608226
     2610562
     2612897
     2615233
     2617571
     2619907
     2622246
     2624586
     2626926
     2629266
     2631603
     2633951
     2636274
     2638615
     2640958
     2643298
     2645652
     2647987
     2650333
     2652669
     2655019
     2657357
     2659698
     2662040
     2664401
     2666747
     2669104
     2671463
     2673799
     2676162
     2678504
     2680851
     2683203
     2685541
     2687901
     2690247
     2692602
     2694950
     2697303
     2699651
     2702001
     2704338
     2706681
     2709037
     2711376
     2713720
     2716051
     2718392
     2720707
     2723039
     2725362
     2727700
     2730025
     2732353
     2734677
     2737006
     2739336
     2741661
     2743991
     2746315
     2748653
     2750984
     2753322
     2755662
     2758006
     2760343
     2762688
     2765036
     2767372
     2769718
     2772057
     2774402
     2776733
     2779075
     2781411
     2783752
     2786093
     2788434
     2790766
     2793117
     2795446
     2797782
     2800116
     2802452
     2804779
     2807105
     2809356
     2811603
     2813850
     2816084
     2818320
     2820557
     2822789
     2825018
     2827250
     2829493
     2831722
     2833957
     2836191
     2838441
     2840674
     2842913
     2845164
     2847405
     2849651
     2851906
     2854168
     2856432
     2858701
     2860991
     2863276
     2865571
     2867871
     2870176
     2872483
     2874797
     2877120
     2879435
     2881771
     2884104
     2886421
     2888752
     2891069
     2893386
     2895623
     2897884
     2900126
     2902387
     2904635
     2906905
     2909167
     2911460
     2913741
     2916032
     2918330
     2920629
     2922942
     2925256
     2927567
     2929866
     2932175
     2934478
     2936797
     2939108
     2941425
     2943750
     2946070
     2948406
     2950737
     2953075
     2955426
     2957758
     2960119
     2962476
     2964842
     2967219
     2969576
     2971950
     2974311
     2976693
     2979073
     2981436
     2983801
     2986156
     2988508
     2990847
     2993204
     2995546
     2997900
     3000254
     3002607
     3004962
     3007317
     3009679
     3012049
     3014417
     3016779
     3019142
     3021505
     3023874
     3026240
     3028611
     3030979
     3033354
     3035713
     3038089
     3040446
     3042807
     3045161
     3047529
     3049888
     3052243
     3054614
     3056965
     3059314
     3061665
     3064028
     3066374
     3068731
     3071080
     3073431
     3075776
     3078131
     3080479
     3082823
     3085169
     3087516
     3089854
     3092202
     3094542
     3096887
     3099231
     3101566
     3103905
     3106248
     3108591
     3110936
     3113277
     3115629
     3117979
     3120314
     3122671
     3124999
     3127352
     3129682
     3132016
     3134348
     3136685
     3139017
     3141349
     3143682
     3146024
     3148340
     3150699
     3153026
     3155375
     3157712
     3160061
     3162410
     3164755
     3167097
     3169435
     3171786
     3174115
     3176452
     3178785
     3181101
     3183442
     3185722
     3188010
     3190290
     3192593
     3194879
     3197189
     3199494
     3201831
     3204175
     3206527
     3208891
     3211232
     3213576
     3215900
     3218233
     3220559
     3222887
     3225217
     3227556
     3229884
     3232229
     3234576
     3236907
     3239260
     3241600
     3243941
     3246283
     3248641
     3250981
     3253339
     3255690
     3258050
     3260377
     3262730
     3265073
     3267420
     3269764
     3272109
     3274449
     3276792
     3279138
     3281472
     3283813
     3286153
     3288477
     3290815
     3293158
     3295504
     3297836
     3300185
     3302525
     3304860
     3307184
     3309518
     3311842
     3314184
     3316528
     3318879
     3321214
     3323555
     3325896
     3328240
     3330596
     3332937
     3335281
     3337621
     3339966
     3342309
     3344652
     3346999
     3349327
     3351660
     3353996
     3356330
     3358654
     3360986
     3363308
     3365621
     3367956
     3370276
     3372586
     3374911
     3377210
     3379519
     3381831
     3384138
     3386448
     3388767
     3391075
     3393391
     3395712
     3398026
     3400348
     3402664
     3404989
     3407292
     3409628
     3411945
     3414262
     3416594
     3418916
     3421237
     3423573
     3425897
     3428230
     3430555
     3432871
     3435193
     3437521
     3439851
     3442186
     3444522
     3446851
     3449204
     3451548
     3453906
     3456252
     3458618
     3460964
     3463327
     3465678
     3468044
     3470411
     3472762
     3475127
     3477485
     3479856
     3482217
     3484562
     3486901
     3489237
     3491456
     3493704
     3495904
     3498115
     3500346
     3502565
     3504793
     3507012
     3509250
     3511481
     3513724
     3515957
     3518181
     3520409
     3522646
     3524882
     3527125
     3529374
     3531632
     3533897
     3536166
     3538446
     3540728
     3543018
     3545306
     3547610
     3549909
     3552216
     3554523
     3556839
     3559169
     3561497
     3563833
     3566166
     3568497
     3570834
     3573194
     3575559
     3577909
     3580272
     3582637
     3585001
     3587363
     3589716
     3592092
     3594462
     3596822
     3599207
     3601562
     3603926
     3606289
     3608666
     3611035
     3613407
     3615782
     3618155
     3620526
     3622889
     3625266
     3627623
     3629992
     3632363
     3634727
     3637095
     3639456
     3641815
     3644172
     3646522
     3648883
     3651242
     3653592
     3655951
     3658300
     3660647
     3662989
     3665322
     3667658
     3669991
     3672332
     3674670
     3677011
     3679356
     3681686
     3684021
     3686354
     3688691
     3691012
     3693349
     3695694
     3698028
     3700369
     3702705
     3705053
     3707391
     3709746
     3712074
     3714413
     3716739
     3719072
     3721412
     3723743
     3726096
     3728421
     3730751
     3733087
     3735419
     3737758
     3740087
     3742425
     3744748
     3747083
     3749412
     3751749
     3754083
     3756422
     3758754
     3761089
     3763415
     3765752
     3768078
     3770406
     3772730
     3775044
     3777373
     3779695
     3782022
     3784337
     3786667
     3788992
     3791324
     3793654
     3795966
     3798289
     3800615
     3802942
     3805266
     3807581
     3809907
     3812231
     3814555
     3816697
     3818996
     3821189
     3823421
     3825644
     3827915
     3830184
     3832467
     3834750
     3837034
     3839330
     3841629
     3843928
     3846236
     3848530
     3850843
     3853154
     3855465
     3857769
     3860062
     3862367
     3864670
     3866988
     3869269
     3871560
     3873844
     3876134
     3878416
     3880707
     3883000
     3885296
     3887586
     3889876
     3892164
     3894463
     3896763
     3899079
     3901384
     3903682
     3905975
     3908249
     3910516
     3912794
     3915104
     3917399
     3919709
     3922018
     3924340
     3926660
     3928983
     3931305
     3933627
     3935949
     3938275
     3940600
     3942922
     3945243
     3947570
     3949884
     3952205
     3954536
     3956862
     3959180
     3961468
     3963734
     3965990
     3968232
     3970479
     3972708
     3974946
     3977180
     3979427
     3981664
     3983901
     3986149
     3988385
     3990620
     3992851
     3995097
     3997344
     3999587
     4001828
     4004083
     4006337
     4008591
     4010858
     4013125
     4015389
     4017677
     4019966
     4022258
     4024560
     4026872
     4029187
     4031522
     4033851
     4036167
     4038483
     4040805
     4043122
     4045430
     4047761
     4050078
     4052402
     4054740
     4057065
     4059390
     4061709
     4064036
     4066359
     4068676
     4070997
     4073322
     4075658
     4077983
     4080313
     4082639
     4084965
     4087288
     4089594
     4091922
     4094230
     4096533
     4098840
     4101147
     4103462
     4105770
     4108079
     4110381
     4112694
     4115019
     4117328
     4119627
     4121950
     4124267
     4126575
     4128896
     4131198
     4133516
     4135836
     4138153
     4140480
     4142801
     4145115
     4147425
     4149741
     4152054
     4154374
     4156694
     4159013
     4161320
     4163640
     4165948
     4168254
     4170574
     4172894
     4175209
     4177523
     4179838
     4182159
     4184481
     4186807
     4189116
     4191424
     4193741
     4196046
     4198366
     4200676
     4202992
     4205311
     4207626
     4209951
     4212274
     4214589
     4216908
     4219217
     4221531
     4223852
     4226166
     4228485
     4230796
     4233133
     4235459
     4237784
     4240108
     4242439
     4244757
     4247072
     4249401
     4251726
     4254059
     4256366
     4258602
     4260796
     4262995
     4265190
     4267400
     4269603
     4271813
     4274017
     4276240
     4278474
     4280723
     4282980
     4285253
     4287535
     4289819
     4292114
     4294415
     4296740
     4299052
     4301352
     4303651
     4305969
     4308279
     4310586
     4312903
     4315203
     4317513
     4319820
     4322134
     4324446
     4326762
     4329076
     4331385
     4333690
     4335992
     4338311
     4340612
     4342920
     4345223
     4347529
     4349836
     4352142
     4354436
     4356742
     4359044
     4361351
     4363654
     4365959
     4368263
     4370583
     4372879
     4375194
     4377503
     4379811
     4382112
     4384422
     4386728
     4389046
     4391354
     4393671
     4395982
     4398291
     4400607
     4402910
     4405216
     4407535
     4409843
     4412156
     4414456
     4416773
     4419093
     4421408
     4423727
     4426043
     4428359
     4430670
     4432994
     4435313
     4437618
     4439933
     4442247
     4444555
     4446870
     4449189
     4451500
     4453817
     4456127
     4458443
     4460750
     4463066
     4465375
     4467691
     4469993
     4472308
     4474628
     4476938
     4479252
     4481557
     4483865
     4486170
     4488485
     4490787
     4493094
     4495406
     4497707
     4500019
     4502330
     4504644
     4506953
     4509262
     4511568
     4513869
     4516165
     4518453
     4520751
     4523049
     4525345
     4527640
     4529942
     4532239
     4534539
     4536834
     4539129
     4541430
     4543719
     4546023
     4548307
     4550600
     4552796
     4555038
     4557247
     4559473
     4561680
     4563895
     4566109
     4568323
     4570543
     4572788
     4575036
     4577296
     4579568
     4581836
     4584123
     4586402
     4588684
     4590968
     4593253
     4595530
     4597821
     4600115
     4602414
     4604660
     4606891
     4609126
     4611430
     4613683
     4615974
     4618254
     4620518
     4622814
     4625032
     4627354
     4629591
     4631902
     4634167
     4636445
     4638714
     4640979
     4643270
     4645539
     4647844
     4650150
     4652406
     4654733
     4657042
     4659342
     4661660
     4663959
     4666260
     4668560
     4670863
     4673162
     4675460
     4677761
     4680063
     4682357
     4684654
     4686952
     4689242
     4691546
     4693850
     4696155
     4698465
     4700761
     4703064
     4705350
     4707646
     4709936
     4712225
     4714521
     4716806
     4719109
     4721387
     4723687
     4725984
     4728276
     4730570
     4732870
     4735168
     4737428
     4739660
     4741851
     4744034
     4746209
     4748382
     4750551
     4752717
     4754880
     4757041
     4759208
     4761383
     4763546
     4765714
     4767883
     4770062
     4772230
     4774424
     4776607
     4778789
     4780984
     4783181
     4785388
     4787597
     4789814
     4792040
     4794269
     4796509
     4798754
     4801011
     4803275
     4805539
     4807816
     4810105
     4812402
     4814704
     4817003
     4819315
     4821626
     4823954
     4826277
     4828597
     4830930
     4833251
     4835590
     4837919
     4840249
     4842581
     4844902
     4847228
     4849565
     4851881
     4854217
     4856534
     4858876
     4861212
     4863550
     4865871
     4868214
     4870537
     4872871
     4875206
     4877535
     4879870
     4882215
     4884553
     4886891
     4889220
     4891554
     4893874
     4896202
     4898527
     4900858
     4903185
     4905493
     4907816
     4910139
     4912461
     4914786
     4917109
     4919434
     4921762
     4924077
     4926393
     4928705
     4931026
     4933334
     4935648
     4937960
     4940262
     4942570
     4944873
     4947188
     4949493
     4951810
     4954109
     4956418
     4958734
     4961043
     4963358
     4965664
     4967959
     4970267
     4972576
     4974886
     4977196
     4979506
     4981809
     4984128
     4986442
     4988759
     4991085
     4993389
     4995709
     4998029
     5000332
     5002640
     5004940
     5007240
     5009554
     5011858
     5014161
     5016472
     5018788
     5021099
     5023403
     5025719
     5028011
     5030315
     5032625
     5034924
     5037230
     5039535
     5041840
     5044149
     5046455
     5048762
     5051065
     5053375
     5055680
     5057979
     5060278
     5062576
     5064883
     5067186
     5069485
     5071789
     5074086
     5076390
     5078689
     5080994
     5083302
     5085603
     5087913
     5090220
     5092516
     5094811
     5097112
     5099408
     5101711
     5104021
     5106321
     5108616
     5110909
     5113206
     5115498
     5117795
     5120094
     5122387
     5124691
     5126988
     5129302
     5131605
     5133918
     5136220
     5138529
     5140825
     5143125
     5145423
     5147739
     5150046
     5152360
     5154665
     5156959
     5159283
     5161584
     5163893
     5166192
     5168496
     5170806
     5173112
     5175426
     5177726
     5180036
     5182342
     5184647
     5186945
     5189248
     5191547
     5193857
     5196156
     5198455
     5200752
     5203057
     5205368
     5207666
     5209976
     5212286
     5214603
     5216916
     5219224
     5221541
     5223845
     5226159
     5228464
     5230765
     5233069
     5235375
     5237677
     5239979
     5242287
     5244594
     5246896
     5249209
     5251504
     5253807
     5256108
     5258403
     5260711
     5263016
     5265314
     5267619
     5269920
     5272161
     5274469
     5276687
     5278937
     5281139
     5283351
     5285552
     5287753
     5289945
     5292150
     5294327
     5296538
     5298718
     5300924
     5303103
     5305304
     5307511
     5309705
     5311917
     5314119
     5316326
     5318536
     5320758
     5322972
     5325197
     5327417
     5329655
     5331888
     5334125
     5336376
     5338626
     5340881
     5343153
     5345443
     5347729
     5350030
     5352338
     5354654
     5356989
     5359306
     5361607
     5363930
     5366246
     5368569
     5370892
     5373209
     5375521
     5377847
     5380172
     5382503
     5384828
     5387152
     5389485
     5391798
     5394130
     5396442
     5398765
     5401082
     5403413
     5405736
     5408057
     5410377
     5412693
     5415011
     5417331
     5419657
     5421976
     5424300
     5426608
     5428931
     5431246
     5433564
     5435878
     5438190
     5440505
     5442821
     5445130
     5447449
     5449755
     5452069
     5454382
     5456702
     5459014
     5461331
     5463651
     5465970
     5468278
     5470594
     5472903
     5475222
     5477529
     5479840
     5482149
     5484449
     5486754
     5489057
     5491358
     5493658
     5495960
     5498266
     5500576
     5502876
     5505184
     5507490
     5509795
     5512061
     5514307
     5516535
     5518779
     5521013
     5523257
     5525508
     5527752
     5530014
     5532273
     5534563
     5536863
     5539188
     5541495
     5543809
     5546125
     5548424
     5550723
     5553025
     5555332
     5557620
     5559922
     5562225
     5564526
     5566820
     5569126
     5571431
     5573743
     5576059
     5578377
     5580685
     5583008
     5585325
     5587642
     5589955
     5592280
     5594514
     5596743
     5598997
     5601244
     5603495
     5605772
     5608030
     5610299
     5612573
     5614849
     5617151
     5619456
     5621765
     5624083
     5626393
     5628700
     5631013
     5633318
     5635634
     5637941
     5640261
     5642566
     5644882
     5647194
     5649498
     5651812
     5654121
     5656435
     5658736
     5661046
     5663334
     5665618
     5667911
     5670197
     5672481
     5674768
     5677068
     5679366
     5681653
     5683962
     5686260
     5688564
     5690864
     5693161
     5695470
     5697778
     5700081
     5702371
     5704666
     5706963
     5709263
     5711561
     5713863
     5716172
     5718460
     5720760
     5723051
     5725353
     5727650
     5729945
     5732242
     5734539
     5736845
     5739145
     5741437
     5743733
     5746033
     5748334
     5750627
     5752932
     5755232
     5757526
     5759807
     5762026
     5764239
     5766448
     5768648
     5770835
     5773038
     5775233
     5777444
     5779623
     5781825
     5784018
     5786228
     5788439
     5790657
     5792894
     5795131
     5797376
     5799619
     5801862
     5804112
     5806360
     5808627
     5810891
     5813158
     5815429
     5817710
     5819989
     5822268
     5824560
     5826844
     5829140
     5831433
     5833743
     5836031
     5838336
     5840642
     5842954
     5845263
     5847574
     5849886
     5852180
     5854499
     5856763
     5859117
     5861430
     5863767
     5866074
     5868393
     5870705
     5873020
     5875341
     5877657
     5879979
     5882295
     5884611
     5886922
     5889241
     5891558
     5893880
     5896192
     5898512
     5900822
     5903145
     5905457
     5907777
     5910081
     5912398
     5914709
     5917021
     5919334
     5921641
     5923950
     5926265
     5928573
     5930895
     5933210
     5935535
     5937845
     5940157
     5942468
     5944772
     5947088
     5949396
     5951712
     5954021
     5956340
     5958646
     5960953
     5963269
     5965570
     5967880
     5970185
     5972498
     5974813
     5977123
     5979434
     5981743
     5984055
     5986368
     5988684
     5990993
     5993298
     5995598
     5997901
     6000212
     6002511
     6004816
     6007115
     6009423
     6011724
     6014023
     6016330
     6018630
     6020926
     6023226
     6025536
     6027843
     6030140
     6032457
     6034770
     6037065
     6039371
     6041676
     6043989
     6046280
     6048591
     6050884
     6053193
     6055499
     6057800
     6060106
     6062410
     6064713
     6067013
     6069321
     6071619
     6073918
     6076224
     6078535
     6080821
     6083116
     6085417
     6087716
     6090001
     6092298
     6094600
     6096897
     6099202
     6101503
     6103808
     6106106
     6108406
     6110719
     6113016
     6115321
     6117626
     6119932
     6122226
     6124529
     6126819
     6129118
     6131416
     6133701
     6136000
     6138294
     6140584
     6142886
     6145176
     6147471
     6149767
     6152064
     6154353
     6156642
     6158939
     6161224
     6163531
     6165813
     6168105
     6170388
     6172688
     6174971
     6177260
     6179552
     6181843
     6184135
     6186428
     6188718
     6191014
     6193303
     6195590
     6197883
     6200176
     6202463
     6204761
     6207047
     6209336
     6211621
     6213910
     6216183
     6218467
     6220760
     6223054
     6225351
     6227642
     6229947
     6232244
     6234545
     6236829
     6239130
     6241388
     6243673
     6245931
     6248206
     6250473
     6252751
     6255006
     6257279
     6259526
     6261801
     6264086
     6266362
     6268652
     6270962
     6273275
     6275578
     6277879
     6280189
     6282487
     6284795
     6287095
     6289372
     6291671
     6293959
     6296246
     6298537
     6300832
     6303118
     6305411
     6307705
     6309988
     6312275
     6314558
     6316842
     6319120
     6321410
     6323699
     6325991
     6328282
     6330588
     6332871
     6335166
     6337470
     6339747
     6342068
     6344371
     6346654
     6348938
     6351229
     6353532
     6355820
     6358091
     6360368
     6362644
     6364935
     6367214
     6369511
     6371800
     6374115
     6376425
     6378738
     6381035
     6383341
     6385646
     6387958
     6390247
     6392536
     6394840
     6397127
     6399414
     6401729
     6404016
     6406305
     6408585
     6410864
     6413153
     6415424
     6417707
     6419984
     6422260
     6424546
     6426833
     6429103
     6431389
     6433664
     6435948
     6438226
     6440510
     6442792
     6445080
     6447361
     6449633
     6451899
     6454153
     6456449
     6458738
     6461032
     6463313
     6465590
     6467871
     6470154
     6472432
     6474718
     6477002
     6479277
     6481554
     6483829
     6486097
     6488374
     6490644
     6492911
     6495185
     6497466
     6499729
     6502002
     6504270
     6506538
     6508809
     6511076
     6513348
     6515617
     6517885
     6520154
     6522418
     6524678
     6526951
     6529218
     6531485
     6533765
     6536053
     6538315
     6540595
     6542866
     6545148
     6547411
     6549708
     6552000
     6554297
     6556594
     6558901
     6561219
     6563515
     6565812
     6568113
     6570404
     6572714
     6575008
     6577313
     6579614
     6581909
     6584219
     6586521
     6588823
     6591127
     6593440
     6595744
     6598043
     6600358
     6602656
     6604963
     6607270
     6609572
     6611884
     6614179
     6616489
     6618791
     6621103
     6623400
     6625706
     6628008
     6630306
     6632600
     6634906
     6637208
     6639512
     6641814
     6644109
     6646411
     6648704
     6651000
     6653293
     6655592
     6657904
     6660191
     6662488
     6664780
     6667066
     6669353
     6671640
     6673937
     6676223
     6678520
     6680812
     6683102
     6685392
     6687688
     6689979
     6692267
     6694560
     6696845
     6699139
     6701422
     6703716
     6705993
     6708282
     6710560
     6712834
     6715106
     6717398
     6719671
     6721956
     6724222
     6726494
     6728763
     6731038
     6733299
     6735560
     6737823
     6740088
     6742356
     6744616
     6746870
     6749143
     6751400
     6753676
     6755947
     6758226
     6760482
     6762776
     6765059
     6767336
     6769620
     6771910
     6774183
     6776471
     6778759
     6781040
     6783322
     6785605
     6787881
     6790177
     6792459
     6794749
     6797021
     6799314
     6801602
     6803893
     6806196
     6808480
     6810778
     6813059
     6815358
     6817652
     6819958
     6822251
     6824534
     6826820
     6829102
     6831401
     6833686
     6835973
     6838255
     6840533
     6842794
     6845053
     6847297
     6849562
     6851808
     6854074
     6856333
     6858590
     6860854
     6863129
     6865387
     6867653
     6869917
     6872184
     6874444
     6876703
     6878960
     6881206
     6883428
     6885614
     6887817
     6890017
     6892211
     6894407
     6896618
     6898826
     6901034
     6903256
     6905484
     6907697
     6909927
     6912148
     6914383
     6916619
     6918861
     6921110
     6923377
     6925638
     6927894
     6930162
     6932433
     6934718
     6936983
     6939265
     6941544
     6943828
     6946107
     6948390
     6950679
     6952949
     6955243
     6957526
     6959819
     6962101
     6964388
     6966676
     6968962
     6971267
     6973561
     6975848
     6978146
     6980447
     6982737
     6985020
     6987299
     6989576
     6991853
     6994127
     6996395
     6998677
     7000957
     7003233
     7005508
     7007778
     7010046
     7012326
     7014597
     7016858
     7019125
     7021415
     7023691
     7025965
     7028255
     7030533
     7032807
     7035087
     7037361
     7039641
     7041923
     7044202
     7046485
     7048752
     7051037
     7053309
     7055587
     7057859
     7060131
     7062403
     7064689
     7066969
     7069258
     7071542
     7073830
     7076119
     7078420
     7080712
     7083003
     7085291
     7087572
     7089854
     7092138
     7094426
     7096700
     7098998
     7101283
     7103569
     7105851
     7108135
     7110421
     7112712
     7115003
     7117298
     7119591
     7121874
     7124166
     7126454
     7128749
     7131039
     7133320
     7135604
     7137877
     7140150
     7142423
     7144694
     7146960
     7149228
     7151493
     7153765
     7156029
     7158296
     7160570
     7162836
     7165110
     7167370
     7169643
     7171909
     7174189
     7176474
     7178749
     7181019
     7183286
     7185545
     7187822
     7190092
     7192369
     7194644
     7196907
     7199186
     7201455
     7203725
     7206012
     7208292
     7210576
     7212875
     7215154
     7217442
     7219714
     7222011
     7224285
     7226578
     7228846
     7231141
     7233425
     7235703
     7237984
     7240256
     7242546
     7244825
     7247104
     7249372
     7251653
     7253926
     7256207
     7258474
     7260750
     7263026
     7265312
     7267591
     7269878
     7272168
     7274441
     7276719
     7278993
     7281270
     7283548
     7285831
     7288121
     7290392
     7292655
     7294925
     7297183
     7299446
     7301707
     7303979
     7306231
     7308489
     7310758
     7313014
     7315285
     7317553
     7319827
     7322093
     7324370
     7326639
     7328911
     7331171
     7333444
     7335712
     7337981
     7340251
     7342521
     7344780
     7347065
     7349341
     7351619
     7353897
     7356168
     7358447
     7360719
     7362997
     7365267
     7367536
     7369790
     7372059
     7374331
     7376585
     7378849
     7381106
     7383383
     7385630
     7387879
     7390120
     7392364
     7394591
     7396828
     7399047
     7401271
     7403492
     7405707
     7407922
     7410134
     7412348
     7414559
     7416759
     7418960
     7421163
     7423377
     7425566
     7427769
     7429973
     7432176
     7434377
     7436581
     7438784
     7440992
     7443195
     7445409
     7447611
     7449823
     7452031
     7454222
     7456426
     7458632
     7460840
     7463041
     7465251
     7467452
     7469658
     7471862
     7474060
     7476270
     7478471
     7480680
     7482888
     7485110
     7487330
     7489539
     7491764
     7493981
     7496206
     7498439
     7500651
     7502876
     7505094
     7507315
     7509524
     7511747
     7513971
     7516186
     7518416
     7520644
     7522873
     7525103
     7527333
     7529558
     7531776
     7534009
     7536235
     7538451
     7540671
     7542899
     7545133
     7547379
     7549614
     7551858
     7554094
     7556329
     7558560
     7560791
     7563020
     7565254
     7567493
     7569729
     7571958
     7574192
     7576420
     7578648
     7580897
     7583127
     7585368
     7587605
     7589852
     7592101
     7594334
     7596584
     7598835
     7601086
     7603336
     7605586
     7607837
     7610102
     7612349
     7614610
     7616863
     7619122
     7621383
     7623624
     7625872
     7628107
     7630365
     7632614
     7634859
     7637113
     7639362
     7641617
     7643875
     7646131
     7648387
     7650653
     7652904
     7655162
     7657416
     7659685
     7661946
     7664200
     7666471
     7668722
     7670978
     7673222
     7675485
     7677731
     7679977
     7682224
     7684490
     7686745
     7688987
     7691256
     7693515
     7695776
     7698037
     7700289
     7702554
     7704808
     7707072
     7709328
     7711591
     7713851
     7716108
     7718366
     7720624
     7722887
     7725154
     7727417
     7729678
     7731940
     7734211
     7736475
     7738735
     7740988
     7743254
     7745512
     7747774
     7750035
     7752286
     7754535
     7756801
     7759045
     7761291
     7763535
     7765787
     7768021
     7770273
     7772513
     7774769
     7777016
     7779275
     7781520
     7783772
     7786017
     7788270
     7790518
     7792770
     7795023
     7797286
     7799536
     7801792
     7804046
     7806301
     7808561
     7810820
     7813075
     7815318
     7817577
     7819818
     7822090
     7824351
     7826606
     7828863
     7831120
     7833385
     7835635
     7837891
     7840143
     7842402
     7844655
     7846915
     7849165
     7851425
     7853668
     7855931
     7858184
     7860436
     7862695
     7864963
     7867220
     7869488
     7871761
     7874021
     7876278
     7878535
     7880789
     7883056
     7885310
     7887575
     7889847
     7892103
     7894367
     7896622
     7898891
     7901143
     7903423
     7905686
     7907955
     7910232
     7912502
     7914775
     7917050
     7919319
     7921593
     7923863
     7926132
     7928411
     7930670
     7932943
     7935201
     7937478
     7939740
     7941990
     7944246
     7946491
     7948737
     7950992
     7953245
     7955497
     7957745
     7959998
     7962243
     7964491
     7966742
     7968998
     7971242
     7973499
     7975761
     7978010
     7980263
     7982527
     7984781
     7987035
     7989280
     7991537
     7993782
     7996026
     7998273
     8000520
     8002775
     8005016
     8007269
     8009536
     8011783
     8014031
     8016281
     8018530
     8020783
     8023040
     8025295
     8027552
     8029798
     8032061
     8034307
     8036564
     8038801
     8041049
     8043294
     8045544
     8047789
     8050048
     8052295
     8054550
     8056813
     8059068
     8061331
     8063595
     8065860
     8068117
     8070383
     8072629
     8074886
     8077138
     8079384
     8081634
     8083889
     8086139
     8088395
     8090643
     8092893
     8095149
     8097398
     8099650
     8101906
     8104160
     8106406
     8108663
     8110922
     8113177
     8115436
     8117696
     8119948
     8122204
     8124457
     8126705
     8128944
     8131196
     8133443
     8135688
     8137931
     8140184
     8142427
     8144680
     8146914
     8149157
     8151396
     8153634
     8155872
     8158120
     8160364
     8162611
     8164873
     8167131
     8169383
     8171639
     8173889
     8176133
     8178378
     8180625
     8182878
     8185135
     8187387
     8189646
     8191896
     8194147
     8196393
     8198640
     8200887
     8203137
     8205386
     8207629
     8209868
     8212112
     8214353
     8216604
     8218850
     8221097
     8223343
     8225581
     8227822
     8230062
     8232294
     8234535
     8236780
     8239020
     8241267
     8243514
     8245763
     8248017
     8250264
     8252510
     8254759
     8257003
     8259240
     8261494
     8263733
     8265980
     8268221
     8270469
     8272716
     8274960
     8277210
     8279454
     8281695
     8283938
     8286181
     8288422
     8290660
     8292860
     8295087
     8297300
     8299515
     8301719
     8303923
     8306136
     8308354
     8310580
     8312800
     8315024
     8317251
     8319473
     8321703
     8323932
     8326164
     8328405
     8330639
     8332873
     8335113
     8337349
     8339585
     8341833
     8344067
     8346303
     8348533
     8350770
     8353016
     8355243
     8357471
     8359712
     8361959
     8364196
     8366437
     8368671
     8370909
     8373144
     8375363
     8377593
     8379820
     8382060
     8384294
     8386532
     8388771
     8391005
     8393242
     8395482
     8397714
     8399954
     8402193
     8404438
     8406675
     8408911
     8411147
     8413387
     8415629
     8417870
     8420108
     8422355
     8424584
     8426826
     8429057
     8431292
     8433526
     8435760
     8437994
     8440222
     8442448
     8444678
     8446911
     8449157
     8451398
     8453639
     8455887
     8458129
     8460370
     8462607
     8464845
     8467088
     8469327
     8471539
     8473764
     8475995
     8478223
     8480445
     8482680
     8484905
     8487138
     8489375
     8491612
     8493850
     8496089
     8498324
     8500568
     8502806
     8505057
     8507296
     8509536
     8511771
     8514002
     8516242
     8518481
     8520718
     8522949
     8525184
     8527422
     8529656
     8531891
     8534126
     8536374
     8538606
     8540832
     8543070
     8545298
     8547536
     8549764
     8552010
     8554234
     8556475
     8558710
     8560945
     8563186
     8565433
     8567673
     8569912
     8572165
     8574401
     8576646
     8578886
     8581130
     8583372
     8585614
     8587856
     8590116
     8592367
     8594617
     8596867
     8599123
     8601367
     8603623
     8605880
     8608126
     8610386
     8612639
     8614897
     8617145
     8619389
     8621648
     8623910
     8626162
     8628420
     8630679
     8632943
     8635202
     8637466
     8639724
     8641981
     8644236
     8646493
     8648764
     8651021
     8653264
     8655516
     8657757
     8660006
     8662264
     8664518
     8666771
     8669023
     8671275
     8673544
     8675799
     8678036
     8680290
     8682536
     8684794
     8687048
     8689304
     8691556
     8693790
     8696056
     8698312
     8700573
     8702835
     8705086
     8707350
     8709600
     8711854
     8714110
     8716369
     8718630
     8720889
     8723153
     8725406
     8727659
     8729916
     8732159
     8734404
     8736643
     8738889
     8741130
     8743369
     8745615
     8747860
     8750110
     8752357
     8754608
     8756855
     8759101
     8761361
     8763616
     8765857
     8768105
     8770346
     8772586
     8774832
     8777081
     8779338
     8781578
     8783830
     8786077
     8788316
     8790565
     8792814
     8795059
     8797308
     8799562
     8801805
     8804064
     8806309
     8808565
     8810820
     8813067
     8815329
     8817576
     8819819
     8822072
     8824320
     8826570
     8828810
     8831056
     8833309
     8835560
     8837813
     8840062
     8842301
     8844552
     8846793
     8849040
     8851281
     8853523
     8855761
     8858007
     8860234
     8862479
     8864707
     8866956
     8869211
     8871443
     8873681
     8875808
     8877973
     8880100
     8882216
     8884324
     8886432
     8888534
     8890631
     8892731
     8894835
     8896931
     8899028
     8901131
     8903234
     8905326
     8907441
     8909544
     8911662
     8913783
     8915906
     8918042
     8920179
     8922326
     8924482
     8926662
     8928855
     8931058
     8933276
     8935514
     8937751
     8940018
     8942285
     8944577
     8946874
     8949196
     8951517
     8953847
     8956190
     8958525
     8960886
     8963248
     8965608
     8967986
     8970368
     8972768
     8975157
     8977561
     8979975
     8982360
     8984765
     8987181
     8989590
     8991985
     8994409
     8996803
     8999206
     9001588
     9004010
     9006409
     9008806
     9011198
     9013587
     9015981
     9018373
     9020757
     9023125
     9025495
     9027865
     9030240
     9032603
     9034974
     9037349
     9039712
     9042078
     9044446
     9046802
     9049163
     9051508
     9053861
     9056205
     9058548
     9060885
     9063237
     9065576
     9067922
     9070245
     9072592
     9074928
     9077249
     9079585
     9081909
     9084223
     9086536
     9088846
     9091156
     9093458
     9095724
     9098002
     9100236
     9102472
     9104718
     9106970
     9109220
     9111464
     9113691
     9115940
     9118175
     9120422
     9122672
     9124917
     9127159
     9129403
     9131650
     9133892
     9136147
     9138408
     9140649
     9142903
     9145162
     9147437
     9149709
     9151969
     9154239
     9156506
     9158778
     9161047
     9163331
     9165603
     9167886
     9170170
     9172456
     9174740
     9177019
     9179313
     9181617
     9183922
     9186237
     9188549
     9190868
     9193167
     9195476
     9197787
     9200088
     9202397
     9204706
     9207016
     9209338
     9211649
     9213967
     9216281
     9218585
     9220892
     9223205
     9225513
     9227834
     9230151
     9232466
     9234785
     9237103
     9239394
     9241703
     9244020
     9246312
     9248605
     9250904
     9253209
     9255497
     9257784
     9260085
     9262370
     9264662
     9266944
     9269231
     9271521
     9273812
     9276101
     9278384
     9280662
     9282946
     9285226
     9287511
     9289784
     9292078
     9294357
     9296640
     9298913
     9301184
     9303461
     9305741
     9308011
     9310230
     9312506
     9314767
     9317081
     9319355
     9321618
     9323874
     9326138
     9328396
     9330659
     9332911
     9335179
     9337445
     9339707
     9341967
     9344233
     9346494
     9348769
     9351048
     9353314
     9355591
     9357859
     9360141
     9362410
     9364688
     9366974
     9369244
     9371537
     9373815
     9376101
     9378377
     9380659
     9382937
     9385217
     9387495
     9389777
     9392063
     9394347
     9396642
     9398925
     9401205
     9403484
     9405770
     9408047
     9410343
     9412625
     9414911
     9417201
     9419498
     9421798
     9424093
     9426390
     9428681
     9430978
     9433266
     9435561
     9437857
     9440145
     9442428
     9444718
     9447017
     9449306
     9451604
     9453893
     9456192
     9458488
     9460774
     9463078
     9465378
     9467663
     9469950
     9472240
     9474512
     9476801
     9479078
     9481367
     9483645
     9485927
     9488214
     9490494
     9492780
     9495067
     9497360
     9499656
     9501938
     9504219
     9506509
     9508800
     9511078
     9513376
     9515666
     9517947
     9520236
     9522520
     9524779
     9527063
     9529329
     9531608
     9533890
     9536161
     9538447
     9540715
     9542994
     9545273
     9547562
     9549835
     9552114
     9554406
     9556691
     9558971
     9561244
     9563530
     9565805
     9568085
     9570361
     9572641
     9574924
     9577203
     9579480
     9581749
     9584035
     9586311
     9588585
     9590856
     9593127
     9595410
     9597683
     9599959
     9602226
     9604507
     9606780
     9609046
     9611317
     9613590
     9615869
     9618140
     9620408
     9622688
     9624961
     9627235
     9629519
     9631789
     9634066
     9636342
     9638610
     9640890
     9643172
     9645450
     9647725
     9649987
     9652242
     9654485
     9656744
     9659012
     9661287
     9663566
     9665842
     9668125
     9670352
     9672581
     9674805
     9677030
     9679251
     9681484
     9683715
     9685948
     9688206
     9690448
     9692703
     9694981
     9697261
     9699538
     9701830
     9704116
     9706405
     9708696
     9711000
     9713287
     9715572
     9717868
     9720143
     9722413
     9724680
     9726958
     9729246
     9731526
     9733802
     9736071
     9738344
     9740614
     9742895
     9745159
     9747409
     9749677
     9751933
     9754184
     9756437
     9758685
     9760928
     9763175
     9765426
     9767678
     9769920
     9772167
     9774403
     9776651
     9778884
     9781140
     9783378
     9785612
     9787865
     9790099
     9792342
     9794575
     9796822
     9799063
     9801304
     9803550
     9805793
     9808034
     9810282
     9812538
     9814799
     9817046
     9819312
     9821567
     9823839
     9826094
     9828367
     9830632
     9832897
     9835163
     9837430
     9839708
     9841969
     9844246
     9846510
     9848781
     9851049
     9853329
     9855607
     9857888
     9860171
     9862457
     9864739
     9867034
     9869322
     9871601
     9873896
     9876190
     9878488
     9880780
     9883081
     9885366
     9887670
     9889960
     9892256
     9894546
     9896837
     9899138
     9901425
     9903707
     9905991
     9908270
     9910556
     9912833
     9915118
     9917415
     9919700
     9921980
     9924254
     9926524
     9928795
     9931065
     9933332
     9935608
     9937893
     9940173
     9942442
     9944733
     9947017
     9949296
     9951573
     9953848
     9956128
     9958409
     9960701
     9962983
     9965260
     9967547
     9969828
     9972109
     9974392
     9976679
     9978963
     9981254
     9983528
     9985822
     9988114
     9990413
     9992708
     9995012
     9997312
     9999614
    10001909
    10004203
    10006505
    10008800
    10011097
    10013386
    10015677
    10017971
    10020264
    10022548
    10024838
    10027105
    10029401
    10031681
    10033974
    10036257
    10038540
    10040830
    10043119
    10045404
    10047682
    10049968
    10052256
    10054559
    10056846
    10059136
    10061423
    10063711
    10065990
    10068279
    10070559
    10072841
    10075126
    10077408
    10079708
    10081985
    10084277
    10086568
    10088852
    10091143
    10093424
    10095703
    10097995
    10100278
    10102550
    10104839
    10107114
    10109398
    10111682
    10113963
    10116246
    10118526
    10120814
    10123096
    10125377
    10127657
    10129942
    10132220
    10134502
    10136791
    10139072
    10141357
    10143637
    10145924
    10148199
    10150474
    10152757
    10155039
    10157313
    10159597
    10161860
    10164127
    10166391
    10168666
    10170938
    10173222
    10175502
    10177781
    10180057
    10182339
    10184618
    10186894
    10189169
    10191434
    10193691
    10195965
    10198225
    10200490
    10202744
    10205005
    10207272
    10209528
    10211793
    10214064
    10216327
    10218585
    10220847
    10223111
    10225374
    10227638
    10229903
    10232173
    10234434
    10236703
    10238970
    10241235
    10243506
    10245770
    10248028
    10250297
    10252563
    10254832
    10257115
    10259389
    10261671
    10263942
    10266209
    10268476
    10270746
    10273017
    10275292
    10277561
    10279829
    10282106
    10284365
    10286643
    10288910
    10291182
    10293451
    10295718
    10297981
    10300259
    10302520
    10304783
    10307055
    10309316
    10311590
    10313867
    10316136
    10318412
    10320681
    10322953
    10325212
    10327476
    10329748
    10332021
    10334288
    10336551
    10338817
    10341091
    10343358
    10345627
    10347877
    10350121
    10352365
    10354612
    10356855
    10359098
    10361347
    10363584
    10365825
    10368062
    10370295
    10372547
    10374792
    10377039
    10379290
    10381541
    10383793
    10386031
    10388281
    10390526
    10392770
    10395020
    10397275
    10399520
    10401760
    10404009
    10406256
    10408515
    10410765
    10413024
    10415279
    10417539
    10419695
    10421866
    10424011
    10426160
    10428294
    10430435
    10432579
    10434717
    10436868
    10439013
    10441183
    10443355
    10445549
    10447748
    10449958
    10452185
    10454418
    10456645
    10458886
    10461119
    10463365
    10465613
    10467860
    10470115
    10472364
    10474625
    10476887
    10479163
    10481429
    10483696
    10485967
    10488239
    10490531
    10492810
    10495103
    10497387
    10499680
    10501978
    10504281
    10506581
    10508878
    10511183
    10513500
    10515808
    10518109
    10520420
    10522718
    10525021
    10527323
    10529631
    10531850
    10534115
    10536335
    10538577
    10540807
    10543036
    10545263
    10547491
    10549718
    10551944
    10554169
    10556405
    10558650
    10560887
    10563127
    10565357
    10567610
    10569867
    10572124
    10574387
    10576657
    10578934
    10581208
    10583481
    10585765
    10588060
    10590355
    10592651
    10594937
    10597251
    10599560
    10601862
    10604166
    10606478
    10608795
    10611108
    10613426
    10615740
    10618047
    10620375
    10622689
    10625014
    10627332
    10629640
    10631947
    10634254
    10636572
    10638872
    10641191
    10643499
    10645820
    10648113
    10650421
    10652738
    10655038
    10657355
    10659650
    10661952
    10664255
    10666551
    10668858
    10671161
    10673467
    10675767
    10678076
    10680363
    10682651
    10684936
    10687227
    10689524
    10691816
    10694103
    10696402
    10698684
    10700977
    10703261
    10705542
    10707821
    10710106
    10712392
    10714665
    10716933
    10719219
    10721498
    10723778
    10726059
    10728354
    10730629
    10732918
    10735192
    10737481
    10739759
    10742046
    10744332
    10746617
    10748906
    10751189
    10753461
    10755747
    10758032
    10760319
    10762602
    10764876
    10767151
    10769421
    10771705
    10773972
    10776256
    10778529
    10780798
    10783062
    10785331
    10787619
    10789901
    10792171
    10794440
    10796722
    10799005
    10801277
    10803563
    10805837
    10808119
    10810391
    10812678
    10814963
    10817239
    10819511
    10821794
    10824071
    10826349
    10828625
    10830896
    10833177
    10835462
    10837738
    10840019
    10842305
    10844573
    10846854
    10849122
    10851413
    10853691
    10855975
    10858258
    10860547
    10862822
    10865104
    10867400
    10869698
    10871987
    10874270
    10876566
    10878861
    10881149
    10883443
    10885718
    10888009
    10890292
    10892586
    10894889
    10897177
    10899479
    10901763
    10904051
    10906340
    10908639
    10910935
    10913230
    10915480
    10917766
    10920025
    10922288
    10924560
    10926813
    10929069
    10931318
    10933576
    10935843
    10938095
    10940360
    10942616
    10944877
    10947143
    10949421
    10951700
    10953972
    10956264
    10958541
    10960810
    10963089
    10965375
    10967665
    10969960
    10972207
    10974476
    10976730
    10978990
    10981248
    10983504
    10985752
    10988015
    10990262
    10992527
    10994787
    10997049
    10999321
    11001599
    11003878
    11006156
    11008452
    11010737
    11013037
    11015342
    11017649
    11019966
    11022276
    11024601
    11026916
    11029234
    11031549
    11033873
    11036191
    11038504
    11040831
    11043142
    11045448
    11047739
    11050038
    11052331
    11054627
    11056925
    11059213
    11061506
    11063788
    11066071
    11068363
    11070652
    11072953
    11075268
    11077575
    11079902
    11082218
    11084550
    11086885
    11089224
    11091561
    11093895
    11096232
    11098561
    11100897
    11103232
    11105557
    11107901
    11110248
    11112599
    11114947
    11117275
    11119610
    11121945
    11124270
    11126606
    11128943
    11131277
    11133608
    11135928
    11138243
    11140573
    11142884
    11145198
    11147504
    11149817
    11152125
    11154427
    11156733
    11159049
    11161370
    11163662
    11165985
    11168286
    11170587
    11172894
    11175199
    11177497
    11179795
    11182095
    11184393
    11186679
    11188982
    11191274
    11193576
    11195883
    11198184
    11200470
    11202769
    11205071
    11207368
    11209658
    11211963
    11214265
    11216565
    11218856
    11221158
    11223465
    11225777
    11228075
    11230384
    11232682
    11234986
    11237286
    11239600
    11241900
    11244219
    11246513
    11248818
    11251115
    11253411
    11255715
    11258007
    11260316
    11262614
    11264933
    11267239
    11269535
    11271839
    11274133
    11276433
    11278736
    11281029
    11283329
    11285625
    11287920
    11290217
    11292522
    11294813
    11297119
    11299415
    11301711
    11303998
    11306283
    11308571
    11310856
    11313144
    11315425
    11317700
    11319997
    11322279
    11324557
    11326849
    11329123
    11331407
    11333675
    11335956
    11338230
    11340514
    11342792
    11345071
    11347347
    11349614
    11351887
    11354164
    11356435
    11358700
    11360977
    11363239
    11365502
    11367779
    11370052
    11372322
    11374581
    11376859
    11379130
    11381404
    11383670
    11385939
    11388189
    11390451
    11392702
    11394969
    11397225
    11399483
    11401743
    11403994
    11406253
    11408513
    11410766
    11413025
    11415274
    11417522
    11419782
    11422027
    11424283
    11426528
    11428787
    11431032
    11433284
    11435530
    11437787
    11440040
    11442293
    11444556
    11446817
    11449051
    11451312
    11453547
    11455804
    11458047
    11460287
    11462551
    11464811
    11467087
    11469343
    11471614
    11473892
    11476163
    11478422
    11480703
    11482975
    11485263
    11487553
    11489833
    11492112
    11494389
    11496677
    11498958
    11501247
    11503544
    11505818
    11508122
    11510420
    11512724
    11515019
    11517304
    11519579
    11521849
    11524125
    11526384
    11528647
    11530907
    11533173
    11535427
    11537691
    11539959
    11542223
    11544489
    11546751
    11549029
    11551288
    11553558
    11555830
    11558085
    11560355
    11562620
    11564895
    11567164
    11569468
    11571748
    11574038
    11576329
    11578630
    11580874
    11583076
    11585268
    11587439
    11589606
    11591764
    11593913
    11596074
    11598229
    11600402
    11602550
    11604700
    11606853
    11609003
    11611149
    11613308
    11615469
    11617630
    11619788
    11621945
    11624105
    11626266
    11628445
    11630621
    11632811
    11634994
    11637186
    11639377
    11641585
    11643787
    11646007
    11648216
    11650429
    11652670
    11654897
    11657150
    11659403
    11661670
    11663938
    11666203
    11668492
    11670788
    11673095
    11675430
    11677742
    11680060
    11682349
    11684647
    11686941
    11689236
    11691540
    11693827
    11696132
    11698403
    11700697
    11702988
    11705276
    11707570
    11709862
    11712138
    11714421
    11716706
    11719005
    11721287
    11723579
    11725863
    11728158
    11730451
    11732724
    11735021
    11737303
    11739595
    11741880
    11744182
    11746467
    11748770
    11751052
    11753358
    11755656
    11757939
    11760234
    11762518
    11764801
    11767083
    11769372
    11771652
    11773932
    11776220
    11778499
    11780793
    11783070
    11785355
    11787637
    11789910
    11792188
    11794472
    11796749
    11799019
    11801302
    11803575
    11805858
    11808131
    11810405
    11812684
    11814968
    11817236
    11819512
    11821783
    11824063
    11826333
    11828601
    11830871
    11833151
    11835425
    11837684
    11839961
    11842231
    11844500
    11846771
    11849033
    11851296
    11853562
    11855822
    11858102
    11860366
    11862650
    11864912
    11867178
    11869449
    11871726
    11873996
    11876269
    11878542
    11880812
    11883084
    11885355
    11887640
    11889908
    11892197
    11894472
    11896746
    11899033
    11901303
    11903587
    11905867
    11908163
    11910435
    11912725
    11915017
    11917320
    11919611
    11921902
    11924209
    11926498
    11928789
    11931085
    11933370
    11935649
    11937925
    11940215
    11942497
    11944780
    11947063
    11949346
    11951597
    11953871
    11956130
    11958389
    11960650
    11962916
    11965187
    11967464
    11969726
    11972007
    11974277
    11976553
    11978852
    11981132
    11983419
    11985701
    11988000
    11990293
    11992597
    11994898
    11997197
    11999490
    12001801
    12004107
    12006420
    12008736
    12011065
    12013385
    12015727
    12018049
    12020391
    12022713
    12025043
    12027380
    12029721
    12032064
    12034409
    12036752
    12039096
    12041445
    12043788
    12046129
    12048470
    12050812
    12053151
    12055498
    12057849
    12060192
    12062538
    12064879
    12067219
    12069557
    12071903
    12074241
    12076587
    12078927
    12081264
    12083601
    12085934
    12088275
    12090612
    12092959
    12095299
    12097631
    12099892
    12102064
    12104231
    12106386
    12108547
    12110700
    12112854
    12115006
    12117165
    12119319
    12121475
    12123629
    12125798
    12127969
    12130149
    12132326
    12134513
    12136701
    12138910
    12141131
    12143353
    12145585
    12147832
    12150102
    12152386
    12154680
    12156982
    12159300
    12161614
    12163939
    12166262
    12168594
    12170934
    12173279
    12175627
    12177966
    12180319
    12182668
    12185016
    12187364
    12189712
    12192054
    12194401
    12196765
    12199115
    12201476
    12203832
    12206191
    12208550
    12210915
    12213283
    12215647
    12218018
    12220379
    12222745
    12225117
    12227486
    12229856
    12232223
    12234593
    12236956
    12239313
    12241671
    12244030
    12246376
    12248731
    12251072
    12253429
    12255777
    12258111
    12260440
    12262776
    12265107
    12267438
    12269779
    12272108
    12274438
    12276758
    12279089
    12281414
    12283735
    12286063
    12288386
    12290700
    12293018
    12295329
    12297649
    12299967
    12302296
    12304619
    12306941
    12309270
    12311600
    12313920
    12316242
    12318566
    12320877
    12323198
    12325506
    12327828
    12330141
    12332451
    12334777
    12337098
    12339423
    12341740
    12344063
    12346380
    12348700
    12351016
    12353335
    12355661
    12357984
    12360306
    12362620
    12364938
    12367252
    12369565
    12371872
    12374177
    12376492
    12378794
    12381101
    12383410
    12385710
    12388012
    12390325
    12392623
    12394922
    12397223
    12399523
    12401812
    12404124
    12406423
    12408736
    12411033
    12413338
    12415637
    12417945
    12420254
    12422559
    12424863
    12427172
    12429480
    12431780
    12434076
    12436379
    12438677
    12440976
    12443285
    12445582
    12447879
    12450185
    12452491
    12454801
    12457113
    12459415
    12461728
    12464042
    12466353
    12468681
    12471003
    12473314
    12475636
    12477943
    12480264
    12482572
    12484896
    12487218
    12489538
    12491859
    12494176
    12496506
    12498830
    12501152
    12503469
    12505775
    12508097
    12510406
    12512719
    12515034
    12517351
    12519660
    12521977
    12524294
    12526614
    12528935
    12531258
    12533569
    12535891
    12538208
    12540537
    12542852
    12545161
    12547472
    12549780
    12552103
    12554423
    12556729
    12559043
    12561362
    12563677
    12565991
    12568309
    12570626
    12572937
    12575252
    12577568
    12579874
    12582184
    12584491
    12586796
    12589107
    12591406
    12593716
    12596023
    12598319
    12600638
    12602945
    12605246
    12607543
    12609832
    12612125
    12614423
    12616728
    12619026
    12621327
    12623628
    12625927
    12628226
    12630535
    12632842
    12635136
    12637448
    12639746
    12642044
    12644356
    12646663
    12648960
    12651272
    12653581
    12655889
    12658191
    12660491
    12662793
    12665091
    12667406
    12669709
    12672015
    12674327
    12676624
    12678927
    12681233
    12683529
    12685828
    12688123
    12690421
    12692715
    12695010
    12697314
    12699610
    12701902
    12704199
    12706492
    12708782
    12711071
    12713365
    12715643
    12717935
    12720218
    12722496
    12724774
    12727038
    12729320
    12731604
    12733874
    12736164
    12738439
    12740713
    12742983
    12745270
    12747555
    12749826
    12752104
    12754383
    12756667
    12758942
    12761213
    12763485
    12765764
    12768035
    12770319
    12772602
    12774877
    12777153
    12779439
    12781726
    12784001
    12786276
    12788564
    12790833
    12793119
    12795386
    12797664
    12799934
    12802219
    12804501
    12806773
    12809066
    12811349
    12813639
    12815914
    12818217
    12820502
    12822783
    12825063
    12827344
    12829634
    12831889
    12834159
    12836421
    12838699
    12840970
    12843250
    12845524
    12847801
    12850099
    12852383
    12854667
    12856956
    12859240
    12861532
    12863810
    12866088
    12868377
    12870662
    12872956
    12875253
    12877542
    12879831
    12882124
    12884420
    12886715
    12889006
    12891300
    12893590
    12895879
    12898161
    12900452
    12902730
    12905003
    12907295
    12909581
    12911855
    12914140
    12916419
    12918700
    12920991
    12923278
    12925551
    12927832
    12930110
    12932403
    12934679
    12936969
    12939246
    12941537
    12943812
    12946090
    12948325
    12950490
    12952644
    12954793
    12956954
    12959098
    12961248
    12963400
    12965562
    12967718
    12969891
    12972069
    12974256
    12976456
    12978661
    12980866
    12983086
    12985307
    12987527
    12989761
    12991997
    12994236
    12996491
    12998752
    13001008
    13003274
    13005552
    13007832
    13010116
    13012409
    13014715
    13017006
    13019288
    13021590
    13023896
    13026215
    13028522
    13030844
    13033158
    13035473
    13037788
    13040109
    13042427
    13044745
    13047054
    13049379
    13051692
    13054003
    13056318
    13058630
    13060947
    13063261
    13065569
    13067889
    13070193
    13072495
    13074794
    13077098
    13079394
    13081693
    13083994
    13086293
    13088588
    13090886
    13093176
    13095475
    13097763
    13100050
    13102337
    13104627
    13106909
    13109200
    13111486
    13113773
    13116058
    13118344
    13120643
    13122930
    13125220
    13127510
    13129807
    13132095
    13134379
    13136655
    13138951
    13141237
    13143542
    13145852
    13148147
    13150438
    13152743
    13155048
    13157343
    13159644
    13161939
    13164230
    13166529
    13168815
    13171100
    13173393
    13175674
    13177959
    13180254
    13182554
    13184843
    13187131
    13189437
    13191725
    13194013
    13196306
    13198598
    13200871
    13203133
    13205388
    13207653
    13209923
    13212189
    13214467
    13216734
    13219017
    13221306
    13223606
    13225896
    13228199
    13230498
    13232791
    13235094
    13237401
    13239701
    13242011
    13244299
    13246611
    13248914
    13251207
    13253511
    13255815
    13258110
    13260413
    13262706
    13265007
    13267297
    13269605
    13271892
    13274191
    13276494
    13278788
    13281097
    13283388
    13285690
    13287994
    13290292
    13292595
    13294895
    13297183
    13299487
    13301786
    13304097
    13306403
    13308715
    13311022
    13313333
    13315629
    13317927
    13320221
    13322524
    13324822
    13327127
    13329431
    13331734
    13334039
    13336333
    13338628
    13340923
    13343221
    13345526
    13347827
    13350129
    13352427
    13354731
    13357020
    13359322
    13361619
    13363919
    13366217
    13368506
    13370798
    13373098
    13375401
    13377700
    13379994
    13382292
    13384573
    13386865
    13389148
    13391441
    13393721
    13396007
    13398285
    13400565
    13402848
    13405128
    13407412
    13409679
    13411960
    13414247
    13416535
    13418815
    13421087
    13423374
    13425641
    13427920
    13430189
    13432454
    13434726
    13436998
    13439267
    13441522
    13443793
    13446042
    13448316
    13450573
    13452837
    13455092
    13457345
    13459602
    13461860
    13464123
    13466384
    13468644
    13470904
    13473155
    13475412
    13477672
    13479941
    13482201
    13484480
    13486741
    13489011
    13491268
    13493549
    13495825
    13498109
    13500387
    13502662
    13504941
    13507213
    13509489
    13511757
    13514032
    13516314
    13518590
    13520862
    13523140
    13525425
    13527707
    13529990
    13532272
    13534540
    13536824
    13539087
    13541345
    13543611
    13545866
    13548125
    13550381
    13552631
    13554880
    13557130
    13559373
    13561630
    13563874
    13566121
    13568366
    13570622
    13572879
    13575127
    13577388
    13579633
    13581877
    13584142
    13586381
    13588627
    13590875
    13593124
    13595381
    13597637
    13599889
    13602135
    13604383
    13606640
    13608887
    13611137
    13613386
    13615638
    13617893
    13620141
    13622393
    13624647
    13626893
    13629147
    13631409
    13633656
    13635914
    13638168
    13640422
    13642664
    13644921
    13647176
    13649441
    13651692
    13653951
    13656209
    13658455
    13660717
    13662961
    13665226
    13667486
    13669745
    13672010
    13674278
    13676537
    13678802
    13681072
    13683333
    13685612
    13687877
    13690160
    13692437
    13694714
    13696980
    13699259
    13701541
    13703819
    13706109
    13708401
    13710674
    13712965
    13715240
    13717510
    13719785
    13722074
    13724356
    13726628
    13728902
    13731183
    13733467
    13735751
    13738025
    13740291
    13742557
    13744815
    13747079
    13749329
    13751589
    13753852
    13756118
    13758379
    13760633
    13762886
    13765134
    13767364
    13769604
    13771851
    13774097
    13776334
    13778570
    13780818
    13783054
    13785291
    13787537
    13789761
    13791992
    13794215
    13796447
    13798685
    13800920
    13803151
    13805389
    13807631
    13809876
    13812114
    13814359
    13816599
    13818841
    13821089
    13823343
    13825583
    13827823
    13830076
    13832320
    13834576
    13836810
    13839065
    13841298
    13843537
    13845788
    13848040
    13850295
    13852551
    13854800
    13857056
    13859310
    13861561
    13863819
    13866082
    13868335
    13870600
    13872864
    13875127
    13877388
    13879641
    13881903
    13884163
    13886436
    13888690
    13890958
    13893218
    13895483
    13897750
    13900018
    13902287
    13904561
    13906816
    13909084
    13911354
    13913623
    13915887
    13918146
    13920404
    13922604
    13924857
    13927077
    13929297
    13931520
    13933751
    13935967
    13938198
    13940439
    13942686
    13944934
    13947194
    13949461
    13951730
    13954000
    13956280
    13958560
    13960845
    13963136
    13965439
    13967745
    13970043
    13972347
    13974643
    13976948
    13979254
    13981558
    13983845
    13986150
    13988458
    13990751
    13993060
    13995360
    13997667
    13999971
    14002268
    14004583
    14006881
    14009184
    14011482
    14013785
    14016087
    14018389
    14020698
    14023004
    14025286
    14027587
    14029879
    14032176
    14034479
    14036779
    14039066
    14041365
    14043663
    14045968
    14048268
    14050572
    14052863
    14055165
    14057443
    14059744
    14062035
    14064326
    14066620
    14068912
    14071209
    14073468
    14075700
    14077921
    14080161
    14082399
    14084635
    14086894
    14089152
    14091428
    14093718
    14096034
    14098344
    14100652
    14102932
    14105216
    14107502
    14109784
    14112076
    14114351
    14116639
    14118922
    14121207
    14123487
    14125762
    14128051
    14130332
    14132613
    14134905
    14137185
    14139476
    14141766
    14144057
    14146336
    14148624
    14150894
    14153174
    14155459
    14157754
    14160039
    14162336
    14164612
    14166893
    14169178
    14171454
    14173713
    14175990
    14178267
    14180528
    14182792
    14185067
    14187335
    14189612
    14191877
    14194158
    14196421
    14198690
    14200960
    14203230
    14205501
    14207770
    14210040
    14212314
    14214597
    14216858
    14219130
    14221385
    14223651
    14225917
    14228200
    14230469
    14232753
    14235024
    14237295
    14239577
    14241859
    14244139
    14246421
    14248706
    14250979
    14253268
    14255545
    14257827
    14260108
    14262396
    14264695
    14266989
    14269283
    14271570
    14273854
    14276128
    14278411
    14280697
    14282988
    14285274
    14287558
    14289842
    14292142
    14294440
    14296726
    14299015
    14301311
    14303596
    14305885
    14308174
    14310480
    14312768
    14315059
    14317355
    14319651
    14321942
    14324231
    14326516
    14328807
    14331083
    14333361
    14335646
    14337932
    14340204
    14342494
    14344789
    14347079
    14349369
    14351660
    14353949
    14356241
    14358534
    14360821
    14363097
    14365382
    14367670
    14369943
    14372233
    14374530
    14376817
    14379100
    14381382
    14383668
    14385948
    14388240
    14390522
    14392806
    14395087
    14397379
    14399673
    14401956
    14404251
    14406544
    14408835
    14411127
    14413408
    14415702
    14417984
    14420253
    14422545
    14424834
    14427121
    14429400
    14431682
    14433967
    14436253
    14438530
    14440808
    14443091
    14445366
    14447644
    14449918
    14452190
    14454461
    14456725
    14458998
    14461278
    14463551
    14465817
    14468088
    14470356
    14472629
    14474899
    14477171
    14479448
    14481723
    14484005
    14486280
    14488555
    14490839
    14493112
    14495390
    14497667
    14499929
    14502204
    14504470
    14506731
    14509003
    14511264
    14513531
    14515787
    14518050
    14520299
    14522572
    14524833
    14527098
    14529365
    14531626
    14533897
    14536152
    14538422
    14540690
    14542963
    14545226
    14547498
    14549762
    14552031
    14554310
    14556585
    14558859
    14561131
    14563400
    14565675
    14567948
    14570215
    14572492
    14574753
    14577020
    14579299
    14581562
    14583837
    14586100
    14588370
    14590642
    14592913
    14595185
    14597462
    14599734
    14602001
    14604279
    14606541
    14608804
    14611087
    14613348
    14615627
    14617894
    14620156
    14622422
    14624708
    14626980
    14629261
    14631538
    14633821
    14636097
    14638368
    14640648
    14642933
    14645231
    14647527
    14649809
    14652101
    14654394
    14656669
    14658957
    14661260
    14663547
    14665838
    14668109
    14670411
    14672713
    14674991
    14677285
    14679570
    14681851
    14684133
    14686409
    14688704
    14690993
    14693276
    14695566
    14697855
    14700102
    14702339
    14704562
    14706791
    14709023
    14711265
    14713487
    14715721
    14717933
    14720150
    14722375
    14724595
    14726822
    14729061
    14731294
    14733534
    14735781
    14738034
    14740283
    14742545
    14744808
    14747073
    14749317
    14751574
    14753796
    14756039
    14758298
    14760541
    14762812
    14765081
    14767352
    14769618
    14771882
    14774163
    14776441
    14778715
    14780992
    14783256
    14785547
    14787829
    14790112
    14792381
    14794663
    14796922
    14799202
    14801475
    14803762
    14806049
    14808315
    14810602
    14812871
    14815162
    14817430
    14819707
    14821969
    14824268
    14826548
    14828797
    14831078
    14833356
    14835622
    14837910
    14840187
    14842485
    14844789
    14847092
    14849397
    14851699
    14854005
    14856281
    14858596
    14860892
    14863190
    14865490
    14867799
    14870095
    14872386
    14874681
    14876965
    14879255
    14881541
    14883835
    14886125
    14888405
    14890693
    14892971
    14895261
    14897556
    14899847
    14902135
    14904429
    14906723
    14909022
    14911320
    14913613
    14915905
    14918197
    14920472
    14922764
    14925051
    14927336
    14929612
    14931893
    14934161
    14936443
    14938711
    14940981
    14943268
    14945542
    14947824
    14950113
    14952381
    14954658
    14956933
    14959207
    14961492
    14963762
    14966049
    14968310
    14970572
    14972843
    14975116
    14977397
    14979674
    14981948
    14984219
    14986496
    14988766
    14991040
    14993302
    14995573
    14997838
    15000102
    15002370
    15004648
    15006907
    15009166
    15011434
    15013697
    15015953
    15018214
    15020485
    15022745
    15025009
    15027270
    15029544
    15031815
    15034094
    15036363
    15038640
    15040907
    15043172
    15045452
    15047726
    15049998
    15052269
    15054532
    15056800
    15059062
    15061322
    15063582
    15065835
    15068096
    15070352
    15072604
    15074850
    15077109
    15079363
    15081615
    15083872
    15086130
    15088395
    15090637
    15092907
    15095166
    15097429
    15099696
    15101962
    15104227
    15106489
    15108756
    15111019
    15113291
    15115549
    15117816
    15120075
    15122329
    15124575
    15126838
    15129094
    15131350
    15133619
    15135879
    15138137
    15140393
    15142653
    15144904
    15147163
    15149422
    15151677
    15153939
    15156195
    15158459
    15160712
    15162972
    15165219
    15167475
    15169716
    15171921
    15174092
    15176270
    15178460
    15180675
    15182885
    15185100
    15187322
    15189564
    15191808
    15194055
    15196305
    15198548
    15200807
    15203061
    15205325
    15207598
    15209855
    15212122
    15214366
    15216538
    15218692
    15220824
    15222950
    15225071
    15227185
    15229308
    15231422
    15233552
    15235671
    15237815
    15239955
    15242111
    15244261
    15246427
    15248601
    15250783
    15252984
    15255191
    15257418
    15259644
    15261879
    15264132
    15266373
    15268625
    15270885
    15273152
    15275414
    15277675
    15279956
    15282242
    15284529
    15286798
    15289071
    15291348
    15293619
    15295894
    15298187
    15300455
    15302739
    15305026
    15307269
    15309507
    15311773
    15314014
    15316263
    15318505
    15320744
    15322983
    15325223
    15327459
    15329711
    15331929
    15334160
    15336386
    15338633
    15340872
    15343127
    15345358
    15347601
    15349832
    15352069
    15354297
    15356535
    15358763
    15360996
    15363234
    15365462
    15367704
    15369934
    15372177
    15374399
    15376630
    15378860
    15381093
    15383323
    15385553
    15387789
    15390023
    15392265
    15394494
    15396735
    15398985
    15401231
    15403492
    15405746
    15408016
    15410285
    15412567
    15414846
    15417120
    15419390
    15421660
    15423939
    15426215
    15428486
    15430766
    15433039
    15435314
    15437582
    15439848
    15442111
    15444394
    15446656
    15448930
    15451199
    15453458
    15455734
    15457998
    15460258
    15462527
    15464779
    15467047
    15469308
    15471577
    15473839
    15476115
    15478388
    15480667
    15482949
    15485227
    15487512
    15489784
    15492071
    15494341
    15496622
    15498894
    15501171
    15503434
    15505700
    15507965
    15510217
    15512492
    15514752
    15517007
    15519271
    15521534
    15523795
    15526065
    15528328
    15530610
    15532885
    15535165
    15537447
    15539737
    15542018
    15544305
    15546586
    15548862
    15551135
    15553417
    15555691
    15557962
    15560227
    15562521
    15564784
    15567059
    15569330
    15571611
    15573889
    15576167
    15578442
    15580711
    15582992
    15585265
    15587541
    15589806
    15592071
    15594340
    15596610
    15598874
    15601137
    15603401
    15605671
    15607936
    15610197
    15612457
    15614723
    15616987
    15619254
    15621519
    15623778
    15626046
    15628311
    15630566
    15632809
    15635058
    15637309
    15639556
    15641805
    15644046
    15646290
    15648524
    15650761
    15653003
    15655240
    15657473
    15659706
    15661933
    15664175
    15666405
    15668639
    15670874
    15673112
    15675343
    15677583
    15679817
    15682048
    15684291
    15686526
    15688776
    15691015
    15693258
    15695498
    15697734
    15699983
    15702230
    15704475
    15706724
    15708981
    15711235
    15713487
    15715734
    15717998
    15720250
    15722509
    15724759
    15727015
    15729266
    15731523
    15733781
    15736033
    15738286
    15740537
    15742798
    15745049
    15747304
    15749565
    15751827
    15754085
    15756343
    15758597
    15760853
    15763111
    15765375
    15767630
    15769891
    15772162
    15774424
    15776674
    15778937
    15781196
    15783452
    15785706
    15787954
    15790214
    15792468
    15794731
    15796994
    15799254
    15801523
    15803794
    15806064
    15808335
    15810612
    15812893
    15815168
    15817450
    15819733
    15822009
    15824291
    15826571
    15828857
    15831138
    15833407
    15835684
    15837960
    15840239
    15842509
    15844772
    15847047
    15849314
    15851598
    15853866
    15856141
    15858412
    15860684
    15862960
    15865234
    15867496
    15869760
    15872021
    15874290
    15876555
    15878821
    15881086
    15883340
    15885608
    15887868
    15890121
    15892386
    15894640
    15896895
    15899153
    15901399
    15903641
    15905893
    15908155
    15910409
    15912665
    15914918
    15917179
    15919439
    15921704
    15923952
    15926206
    15928460
    15930712
    15932953
    15935211
    15937468
    15939719
    15941969
    15944227
    15946482
    15948729
    15950989
    15953249
    15955512
    15957762
    15960014
    15962258
    15964500
    15966746
    15968997
    15971239
    15973488
    15975723
    15977934
    15980175
    15982399
    15984631
    15986872
    15989104
    15991350
    15993596
    15995853
    15998110
    16000393
    16002659
    16004936
    16007177
    16009381
    16011592
    16013811
    16016025
    16018260
    16020505
    16022750
    16025014
    16027277
    16029545
    16031806
    16034072
    16036335
    16038612
    16040875
    16043136
    16045400
    16047670
    16049944
    16052206
    16054462
    16056720
    16058982
    16061227
    16063485
    16065728
    16067979
    16070237
    16072493
    16074743
    16076996
    16079254
    16081503
    16083754
    16086000
    16088244
    16090496
    16092754
    16095024
    16097282
    16099538
    16101784
    16104045
    16106294
    16108554
    16110807
    16113062
    16115322
    16117568
    16119820
    16122072
    16124332
    16126578
    16128828
    16131080
    16133324
    16135568
    16137819
    16140063
    16142308
    16144550
    16146789
    16149029
    16151263
    16153499
    16155726
    16157955
    16160188
    16162417
    16164650
    16166880
    16169117
    16171356
    16173585
    16175824
    16178064
    16180294
    16182539
    16184772
    16187014
    16189258
    16191492
    16193727
    16195970
    16198209
    16200447
    16202687
    16204918
    16207148
    16209379
    16211617
    16213856
    16216098
    16218342
    16220585
    16222830
    16225073
    16227316
    16229552
    16231793
    16234015
    16236228
    16238451
    16240679
    16242888
    16245108
    16247310
    16249518
    16251740
    16253947
    16256165
    16258384
    16260607
    16262812
    16265038
    16267256
    16269476
    16271688
    16273916
    16276136
    16278366
    16280589
    16282813
    16285038
    16287265
    16289493
    16291718
    16293945
    16296187
    16298412
    16300650
    16302882
    16305134
    16307359
    16309616
    16311846
    16314094
    16316332
    16318572
    16320816
    16323067
    16325321
    16327578
    16329833
    16332100
    16334349
    16336589
    16338832
    16340901
    16343130
    16345248
    16347414
    16349549
    16351704
    16353861
    16356016
    16358158
    16360310
    16362478
    16364661
    16366832
    16369015
    16371193
    16373385
    16375567
    16377759
    16379935
    16382126
    16384310
    16386507
    16388696
    16390889
    16393097
    16395293
    16397510
    16399714
    16401935
    16404159
    16406375
    16408609
    16410845
    16413076
    16415321
    16417560
    16419802
    16422042
    16424300
    16426548
    16428814
    16431063
    16433321
    16435574
    16437849
    16440108
    16442386
    16444643
    16446923
    16449196
    16451478
    16453751
    16456030
    16458308
    16460580
    16462869
    16465147
    16467442
    16469715
    16472004
    16474285
    16476563
    16478836
    16481111
    16483385
    16485653
    16487920
    16490201
    16492483
    16494759
    16497041
    16499317
    16501587
    16503869
    16506138
    16508404
    16510664
    16512922
    16515193
    16517441
    16519697
    16521924
    16524134
    16526345
    16528547
    16530740
    16532926
    16535102
    16537290
    16539468
    16541646
    16543813
    16545992
    16548171
    16550349
    16552541
    16554723
    16556916
    16559120
    16561316
    16563527
    16565739
    16567969
    16570197
    16572443
    16574690
    16576948
    16579206
    16581467
    16583711
    16585949
    16588181
    16590420
    16592644
    16594879
    16597114
    16599360
    16601589
    16603835
    16606080
    16608324
    16610561
    16612810
    16615052
    16617300
    16619540
    16621784
    16624029
    16626274
    16628521
    16630773
    16633017
    16635272
    16637516
    16639756
    16642001
    16644252
    16646511
    16648770
    16651028
    16653279
    16655533
    16657789
    16660055
    16662310
    16664572
    16666826
    16669099
    16671365
    16673633
    16675896
    16678133
    16680381
    16682626
    16684868
    16687104
    16689355
    16691604
    16693850
    16696092
    16698346
    16700603
    16702863
    16705112
    16707359
    16709605
    16711853
    16714105
    16716357
    16718605
    16720869
    16723128
    16725395
    16727652
    16729898
    16732153
    16734407
    16736657
    16738907
    16741160
    16743405
    16745654
    16747910
    16750169
    16752416
    16754667
    16756924
    16759188
    16761449
    16763703
    16765959
    16768231
    16770500
    16772752
    16775001
    16777251
    16779503
    16781757
    16784018
    16786275
    16788516
    16790770
    16793017
    16795272
    16797533
    16799788
    16802050
    16804320
    16806576
    16808839
    16811112
    16813381
    16815649
    16817943
    16820211
    16822486
    16824756
    16827035
    16829308
    16831581
    16833858
    16836131
    16838404
    16840680
    16842953
    16845218
    16847494
    16849767
    16852040
    16854316
    16856577
    16858851
    16861116
    16863396
    16865656
    16867924
    16870189
    16872460
    16874735
    16876997
    16879261
    16881515
    16883777
    16886042
    16888299
    16890555
    16892822
    16895091
    16897345
    16899611
    16901861
    16904120
    16906381
    16908647
    16910907
    16913172
    16915424
    16917676
    16919926
    16922167
    16924426
    16926678
    16928937
    16931198
    16933460
    16935718
    16937978
    16940236
    16942490
    16944751
    16947009
    16949270
    16951531
    16953798
    16956067
    16958334
    16960601
    16962867
    16965147
    16967416
    16969696
    16971959
    16974234
    16976494
    16978776
    16981050
    16983330
    16985605
    16987883
    16990150
    16992433
    16994693
    16996957
    16999231
    17001510
    17003783
    17006057
    17008331
    17010602
    17012876
    17015144
    17017416
    17019686
    17021951
    17024220
    17026500
    17028755
    17031037
    17033295
    17035564
    17037836
    17040096
    17042361
    17044625
    17046894
    17049163
    17051435
    17053700
    17055973
    17058239
    17060513
    17062777
    17065052
    17067306
    17069579
    17071848
    17074106
    17076377
    17078656
    17080919
    17083193
    17085458
    17087725
    17089984
    17092255
    17094515
    17096780
    17099057
    17101320
    17103587
    17105847
    17108114
    17110380
    17112646
    17114912
    17117185
    17119454
    17121730
    17124001
    17126275
    17128545
    17130820
    17133091
    17135360
    17137626
    17139903
    17142178
    17144453
    17146719
    17148994
    17151265
    17153530
    17155712
    17157960
    17160138
    17162334
    17164517
    17166688
    17168858
    17171038
    17173217
    17175393
    17177570
    17179738
    17181916
    17184091
    17186279
    17188453
    17190621
    17192788
    17194955
    17197111
    17199288
    17201481
    17203654
    17205849
    17208045
    17210274
    17212504
    17214755
    17217022
    17219294
    17221582
    17223882
    17226183
    17228509
    17230804
    17233107
    17235409
    17237696
    17239973
    17242254
    17244531
    17246802
    17249086
    17251364
    17253654
    17255924
    17258204
    17260474
    17262756
    17265035
    17267314
    17269602
    17271894
    17274174
    17276460
    17278748
    17281029
    17283301
    17285588
    17287853
    17290133
    17292418
    17294695
    17296978
    17299256
    17301547
    17303816
    17306104
    17308368
    17310655
    17312927
    17315197
    17317454
    17319726
    17321991
    17324258
    17326528
    17328797
    17331059
    17333335
    17335598
    17337863
    17340132
    17342392
    17344665
    17346922
    17349186
    17351454
    17353716
    17355972
    17358228
    17360497
    17362771
    17365034
    17367293
    17369558
    17371821
    17374096
    17376362
    17378635
    17380897
    17383169
    17385442
    17387703
    17389969
    17392233
    17394504
    17396772
    17399048
    17401315
    17403586
    17405860
    17408139
    17410410
    17412679
    17414950
    17417223
    17419492
    17421776
    17424047
    17426319
    17428592
    17430859
    17433132
    17435393
    17437659
    17439933
    17442208
    17444478
    17446750
    17449021
    17451302
    17453580
    17455851
    17458125
    17460395
    17462666
    17464944
    17467211
    17469484
    17471757
    17474032
    17476306
    17478585
    17480859
    17483125
    17485395
    17487670
    17489942
    17492214
    17494475
    17496738
    17498999
    17501259
    17503520
    17505788
    17508051
    17510318
    17512583
    17514870
    17517133
    17519412
    17521669
    17523938
    17526219
    17528491
    17530759
    17533024
    17535290
    17537564
    17539827
    17542108
    17544385
    17546642
    17548917
    17551184
    17553464
    17555731
    17557999
    17560271
    17562535
    17564812
    17567080
    17569338
    17571607
    17573863
    17576115
    17578392
    17580647
    17582913
    17585178
    17587443
    17589687
    17591896
    17594122
    17596345
    17598570
    17600787
    17603036
    17605270
    17607531
    17609789
    17612044
    17614315
    17616579
    17618849
    17621128
    17623408
    17625679
    17627952
    17630218
    17632496
    17634777
    17637059
    17639341
    17641617
    17643888
    17646166
    17648447
    17650724
    17653003
    17655286
    17657559
    17659829
    17662107
    17664385
    17666645
    17668818
    17670969
    17673125
    17675279
    17677444
    17679615
    17681781
    17683958
    17686148
    17688347
    17690554
    17692779
    17695042
    17697309
    17699579
    17701846
    17704117
    17706398
    17708671
    17710947
    17713225
    17715498
    17717768
    17720042
    17722318
    17724601
    17726865
    17729148
    17731419
    17733700
    17735978
    17738250
    17740530
    17742809
    17745093
    17747371
    17749659
    17751943
    17754230
    17756524
    17758813
    17761118
    17763411
    17765707
    17768004
    17770299
    17772588
    17774879
    17777172
    17779463
    17781763
    17784051
    17786341
    17788631
    17790924
    17793223
    17795512
    17797804
    17800097
    17802391
    17804685
    17806978
    17809262
    17811545
    17813819
    17816107
    17818389
    17820686
    17822973
    17825263
    17827539
    17829822
    17832107
    17834374
    17836642
    17838929
    17841212
    17843488
    17845759
    17848032
    17850302
    17852574
    17854840
    17857113
    17859379
    17861658
    17863920
    17866193
    17868464
    17870731
    17873006
    17875279
    17877553
    17879827
    17882099
    17884364
    17886627
    17888897
    17891154
    17893418
    17895680
    17897953
    17900215
    17902484
    17904741
    17907015
    17909284
    17911554
    17913834
    17916097
    17918356
    17920615
    17922883
    17925148
    17927412
    17929680
    17931947
    17934215
    17936481
    17938735
    17941008
    17943268
    17945548
    17947813
    17950080
    17952348
    17954613
    17956875
    17959136
    17961401
    17963670
    17965934
    17968206
    17970470
    17972742
    17975017
    17977283
    17979548
    17981816
    17984078
    17986355
    17988616
    17990883
    17993151
    17995422
    17997696
    17999967
    18002238
    18004506
    18006778
    18009047
    18011318
    18013585
    18015856
    18018122
    18020408
    18022675
    18024951
    18027219
    18029488
    18031745
    18034010
    18036267
    18038532
    18040795
    18043072
    18045334
    18047597
    18049861
    18052123
    18054388
    18056641
    18058895
    18061160
    18063432
    18065701
    18067964
    18070233
    18072494
    18074760
    18077030
    18079302
    18081556
    18083824
    18086086
    18088350
    18090612
    18092880
    18095147
    18097417
    18099693
    18101956
    18104230
    18106480
    18108748
    18111023
    18113297
    18115547
    18117810
    18120073
    18122321
    18124595
    18126852
    18129114
    18131381
    18133631
    18135890
    18138134
    18140372
    18142613
    18144856
    18147101
    18149355
    18151603
    18153836
    18156055
    18158287
    18160506
    18162735
    18164904
    18167080
    18169226
    18171374
    18173514
    18175670
    18177826
    18179988
    18182142
    18184274
    18186429
    18188593
    18190755
    18192917
    18195084
    18197244
    18199411
    18201568
    18203735
    18205898
    18208066
    18210246
    18212424
    18214633
    18216810
    18219004
    18221191
    18223384
    18225584
    18227786
    18229986
    18232192
    18234403
    18236622
    18238839
    18241063
    18243293
    18245518
    18247752
    18249989
    18252221
    18254476
    18256726
    18258972
    18261229
    18263487
    18265738
    18267998
    18270257
    18272533
    18274789
    18277063
    18279334
    18281606
    18283884
    18286161
    18288442
    18290715
    18292989
    18295282
    18297578
    18299867
    18302156
    18304439
    18306731
    18309022
    18311313
    18313605
    18315895
    18318188
    18320474
    18322756
    18325048
    18327338
    18329613
    18331903
    18334192
    18336484
    18338769
    18341067
    18343354
    18345645
    18347942
    18350224
    18352521
    18354809
    18357103
    18359397
    18361677
    18363968
    18366264
    18368546
    18370827
    18373103
    18375379
    18377660
    18379934
    18382210
    18384498
    18386771
    18389049
    18391317
    18393584
    18395851
    18398118
    18400389
    18402653
    18404926
    18407190
    18409463
    18411738
    18413984
    18416204
    18418420
    18420645
    18422872
    18425107
    18427342
    18429581
    18431825
    18434072
    18436318
    18438568
    18440824
    18443073
    18445334
    18447591
    18449843
    18452094
    18454357
    18456605
    18458856
    18461104
    18463353
    18465603
    18467840
    18470084
    18472329
    18474581
    18476828
    18479077
    18481331
    18483583
    18485826
    18488075
    18490313
    18492562
    18494812
    18497063
    18499310
    18501565
    18503823
    18506072
    18508331
    18510584
    18512842
    18515094
    18517346
    18519611
    18521870
    18524125
    18526383
    18528641
    18530886
    18533143
    18535394
    18537650
    18539907
    18542164
    18544425
    18546683
    18548944
    18551205
    18553468
    18555727
    18557991
    18560246
    18562507
    18564766
    18567021
    18569270
    18571523
    18573778
    18576034
    18578289
    18580539
    18582791
    18585039
    18587287
    18589532
    18591779
    18594031
    18596219
    18598444
    18600636
    18602843
    18605037
    18607235
    18609441
    18611645
    18613855
    18616074
    18618284
    18620505
    18622736
    18624966
    18627210
    18629450
    18631705
    18633958
    18636215
    18638479
    18640746
    18643012
    18645282
    18647553
    18649823
    18652104
    18654381
    18656663
    18658941
    18661213
    18663477
    18665726
    18667943
    18670167
    18672390
    18674609
    18676832
    18679052
    18681302
    18683540
    18685793
    18688035
    18690289
    18692541
    18694792
    18697040
    18699299
    18701559
    18703834
    18706103
    18708383
    18710668
    18712957
    18715250
    18717550
    18719849
    18722154
    18724448
    18726739
    18729047
    18731347
    18733657
    18735957
    18738254
    18740557
    18742855
    18745149
    18747438
    18749739
    18752029
    18754334
    18756624
    18758925
    18761218
    18763510
    18765802
    18768092
    18770387
    18772676
    18774949
    18777210
    18779465
    18781706
    18783944
    18786171
    18788405
    18790622
    18792850
    18795069
    18797289
    18799505
    18801726
    18803945
    18806162
    18808371
    18810583
    18812794
    18815007
    18817203
    18819418
    18821623
    18823840
    18826030
    18828243
    18830435
    18832539
    18834658
    18836771
    18838883
    18841002
    18843118
    18845232
    18847354
    18849489
    18851628
    18853779
    18855942
    18858095
    18860260
    18862423
    18864589
    18866769
    18868944
    18871120
    18873293
    18875470
    18877642
    18879828
    18882007
    18884190
    18886379
    18888578
    18890769
    18892960
    18895163
    18897361
    18899573
    18901776
    18903989
    18906204
    18908433
    18910667
    18912894
    18915126
    18917361
    18919607
    18921858
    18924118
    18926380
    18928639
    18930903
    18933163
    18935427
    18937689
    18939967
    18942231
    18944497
    18946759
    18949026
    18951304
    18953581
    18955857
    18958128
    18960403
    18962676
    18964955
    18967233
    18969505
    18971779
    18974059
    18976326
    18978610
    18980879
    18983157
    18985432
    18987707
    18989988
    18992266
    18994548
    18996821
    18999095
    19001361
    19003638
    19005920
    19008189
    19010473
    19012758
    19015033
    19017322
    19019595
    19021876
    19024150
    19026435
    19028699
    19030989
    19033263
    19035545
    19037812
    19040092
    19042372
    19044638
    19046917
    19049185
    19051454
    19053723
    19055989
    19058259
    19060538
    19062810
    19065072
    19067344
    19069613
    19071880
    19074148
    19076414
    19078684
    19080938
    19083200
    19085462
    19087730
    19089981
    19092238
    19094489
    19096754
    19099010
    19101281
    19103539
    19105806
    19108059
    19110312
    19112574
    19114824
    19117080
    19119333
    19121579
    19123841
    19126094
    19128358
    19130605
    19132866
    19135113
    19137373
    19139630
    19141899
    19144156
    19146425
    19148689
    19150953
    19153217
    19155482
    19157752
    19160032
    19162304
    19164573
    19166840
    19169117
    19171390
    19173668
    19175936
    19178207
    19180488
    19182769
    19185038
    19187322
    19189585
    19191870
    19194144
    19196423
    19198698
    19200979
    19203254
    19205540
    19207823
    19210093
    19212368
    19214638
    19216913
    19219198
    19221474
    19223761
    19226028
    19228312
    19230580
    19232857
    19235121
    19237400
    19239671
    19241954
    19244227
    19246508
    19248774
    19251052
    19253316
    19255592
    19257878
    19260145
    19262429
    19264703
    19266986
    19269254
    19271527
    19273798
    19276069
    19278334
    19280588
    19282846
    19285099
    19287351
    19289605
    19291856
    19294107
    19296361
    19298613
    19300858
    19303113
    19305363
    19307616
    19309858
    19312108
    19314349
    19316606
    19318853
    19321099
    19323361
    19325608
    19327861
    19330118
    19332378
    19334642
    19336902
    19339163
    19341416
    19343687
    19345948
    19348221
    19350491
    19352768
    19355042
    19357316
    19359588
    19361864
    19364147
    19366412
    19368684
    19370965
    19373247
    19375510
    19377801
    19380070
    19382359
    19384625
    19386897
    19389166
    19391438
    19393702
    19395975
    19398227
    19400503
    19402756
    19405030
    19407286
    19409553
    19411817
    19414083
    19416356
    19418631
    19420897
    19423171
    19425432
    19427702
    19429966
    19432238
    19434505
    19436782
    19439042
    19441316
    19443585
    19445851
    19448114
    19450397
    19452655
    19454920
    19457176
    19459444
    19461702
    19463957
    19466214
    19468490
    19470738
    19472997
    19475257
    19477513
    19479765
    19482018
    19484280
    19486530
    19488786
    19491031
    19493276
    19495523
    19497786
    19500035
    19502291
    19504551
    19506806
    19509052
    19511315
    19513566
    19515834
    19518095
    19520343
    19522590
    19524851
    19527101
    19529346
    19531583
    19533823
    19536065
    19538303
    19540540
    19542779
    19545020
    19547270
    19549512
    19551767
    19554020
    19556271
    19558526
    19560774
    19563025
    19565275
    19567514
    19569754
    19571992
    19574221
    19576453
    19578683
    19580922
    19583150
    19585369
    19587612
    19589838
    19592066
    19594285
    19596513
    19598737
    19600972
    19603204
    19605436
    19607676
    19609915
    19612146
    19614386
    19616623
    19618868
    19621101
    19623351
    19625591
    19627845
    19630102
    19632352
    19634600
    19636842
    19639090
    19641346
    19643594
    19645846
    19648100
    19650347
    19652613
    19654864
    19657116
    19659371
    19661627
    19663892
    19666143
    19668396
    19670646
    19672900
    19675141
    19677396
    19679644
    19681902
    19684160
    19686423
    19688670
    19690927
    19693192
    19695452
    19697717
    19699973
    19702245
    19704513
    19706784
    19709051
    19711322
    19713603
    19715876
    19718158
    19720432
    19722716
    19724993
    19727281
    19729567
    19731832
    19734109
    19736380
    19738655
    19740930
    19743215
    19745492
    19747767
    19750036
    19752302
    19754572
    19756830
    19759091
    19761348
    19763612
    19765871
    19768122
    19770324
    19772488
    19774620
    19776775
    19778898
    19781039
    19783184
    19785334
    19787492
    19789668
    19791871
    19794082
    19796325
    19798601
    19800911
    19803185
    19805439
    19807684
    19809944
    19812206
    19814451
    19816698
    19818959
    19821209
    19823457
    19825709
    19827970
    19830232
    19832490
    19834758
    19837007
    19839271
    19841534
    19843807
    19846070
    19848341
    19850607
    19852875
    19855140
    19857390
    19859659
    19861904
    19864171
    19866405
    19868676
    19870926
    19873167
    19875437
    19877682
    19879948
    19882211
    19884465
    19886729
    19889007
    19891274
    19893542
    19895812
    19898081
    19900358
    19902623
    19904892
    19907158
    19909438
    19911705
    19913975
    19916252
    19918513
    19920780
    19923052
    19925323
    19927601
    19929884
    19932163
    19934436
    19936705
    19938979
    19941257
    19943534
    19945807
    19948083
    19950354
    19952632
    19954916
    19957186
    19959468
    19961743
    19964014
    19966277
    19968561
    19970822
    19973098
    19975371
    19977638
    19979897
    19982160
    19984422
    19986681
    19988938
    19991209
    19993466
    19995728
    19997988
    20000260
    20002525
    20004787
    20007049
    20009322
    20011586
    20013855
    20016119
    20018390
    20020653
    20022924
    20025190
    20027468
    20029731
    20031994
    20034258
    20036514
    20038795
    20041067
    20043336
    20045602
    20047876
    20050138
    20052416
    20054678
    20056942
    20059187
    20061439
    20063705
    20065967
    20068222
    20070483
    20072749
    20075003
    20077257
    20079519
    20081774
    20084021
    20086271
    20088533
    20090776
    20093033
    20095280
    20097542
    20099802
    20102059
    20104321
    20106568
    20108828
    20111077
    20113324
    20115574
    20117821
    20120072
    20122316
    20124575
    20126839
    20129105
    20131359
    20133630
    20135900
    20138171
    20140430
    20142689
    20144955
    20147219
    20149496
    20151746
    20154018
    20156277
    20158528
    20160733
    20162884
    20165006
    20167092
    20169149
    20171219
    20173251
    20175310
    20177328
    20179382
    20181432
    20183497
    20185563
    20187660
    20189777
    20191913
    20194074
    20196247
    20198432
    20200622
    20202813
    20205016
    20207206
    20209402
    20211589
    20213784
    20215975
    20218169
    20220364
    20222573
    20224767
    20226967
    20229166
    20231378
    20233587
    20235795
    20238014
    20240243
    20242465
    20244701
    20246946
    20249181
    20251426
    20253661
    20255927
    20258164
    20260421
    20262662
    20264915
    20267160
    20269420
    20271662
    20273926
    20276198
    20278443
    20280712
    20282993
    20285277
    20287556
    20289849
    20292139
    20294420
    20296708
    20299001
    20301209
    20303344
    20305499
    20307626
    20309761
    20311886
    20314028
    20316164
    20318297
    20320434
    20322577
    20324731
    20326908
    20329083
    20331278
    20333515
    20335764
    20338025
    20340289
    20342582
    20344876
    20347184
    20349481
    20351792
    20354111
    20356435
    20358764
    20361084
    20363425
    20365759
    20368093
    20370445
    20372784
    20375136
    20377489
    20379833
    20382187
    20384538
    20386888
    20389225
    20391560
    20393896
    20396223
    20398540
    20400846
    20403137
    20405427
    20407714
    20409994
    20412277
    20414560
    20416830
    20419105
    20421374
    20423645
    20425911
    20428165
    20430422
    20432677
    20434930
    20437178
    20439437
    20441691
    20443946
    20446202
    20448459
    20450718
    20452983
    20455241
    20457502
    20459777
    20462035
    20464298
    20466562
    20468822
    20471082
    20473340
    20475603
    20477867
    20480118
    20482373
    20484632
    20486889
    20489135
    20491403
    20493661
    20495930
    20498208
    20500476
    20502750
    20505018
    20507296
    20509576
    20511846
    20514119
    20516380
    20518650
    20520912
    20523170
    20525438
    20527691
    20529932
    20532167
    20534400
    20536626
    20538851
    20541081
    20543318
    20545542
    20547786
    20550026
    20552274
    20554515
    20556761
    20558996
    20561229
    20563472
    20565710
    20567957
    20570193
    20572445
    20574682
    20576926
    20579173
    20581427
    20583665
    20585910
    20588160
    20590397
    20592647
    20594895
    20597148
    20599408
    20601666
    20603940
    20606196
    20608458
    20610716
    20612989
    20615251
    20617526
    20619804
    20622075
    20624354
    20626628
    20628901
    20631179
    20633443
    20635726
    20638002
    20640284
    20642565
    20644853
    20647132
    20649417
    20651693
    20653979
    20656244
    20658540
    20660826
    20663107
    20665392
    20667677
    20669948
    20672222
    20674500
    20676777
    20679043
    20681321
    20683611
    20685877
    20688164
    20690434
    20692715
    20694997
    20697279
    20699563
    20701840
    20704127
    20706397
    20708671
    20710952
    20713226
    20715517
    20717798
    20720078
    20722351
    20724631
    20726904
    20729191
    20731475
    20733765
    20736048
    20738337
    20740626
    20742916
    20745215
    20747516
    20749801
    20752102
    20754390
    20756677
    20758956
    20761259
    20763552
    20765841
    20768133
    20770419
    20772703
    20774981
    20777256
    20779535
    20781813
    20784099
    20786375
    20788653
    20790930
    20793202
    20795471
    20797759
    20800028
    20802315
    20804585
    20806861
    20809130
    20811383
    20813640
    20815895
    20818144
    20820395
    20822646
    20824898
    20827157
    20829408
    20831661
    20833912
    20836159
    20838407
    20840656
    20842908
    20845149
    20847397
    20849659
    20851918
    20854166
    20856412
    20858648
    20860896
    20863139
    20865386
    20867630
    20869871
    20872121
    20874374
    20876626
    20878877
    20881126
    20883369
    20885614
    20887844
    20890074
    20892316
    20894558
    20896804
    20899046
    20901276
    20903506
    20905746
    20907974
    20910216
    20912445
    20914684
    20916920
    20919158
    20921403
    20923642
    20925870
    20928116
    20930354
    20932588
    20934836
    20937066
    20939306
    20941526
    20943747
    20945958
    20948182
    20950405
    20952608
    20954803
    20956982
    20959143
    20961316
    20963486
    20965653
    20967809
    20969982
    20972145
    20974315
    20976494
    20978667
    20980844
    20983019
    20985198
    20987370
    20989551
    20991737
    20993920
    20996105
    20998287
    21000464
    21002648
    21004834
    21007010
    21009200
    21011389
    21013571
    21015766
    21017953
    21020137
    21022320
    21024516
    21026708
