        6890
       10951
       15012
       19084
       23163
       27240
       31324
       35397
       39451
       43489
       47482
       51441
       55439
       59418
       63420
       67370
       71269
       75187
       79159
       83159
       87166
       91206
       95244
       99277
      103283
      107285
      111262
      115243
      119262
      123299
      127300
      131302
      135283
      139249
      143223
      147212
      151215
      155238
      159259
      163275
      167245
      171222
      175215
      179238
      183266
      187310
      191358
      195386
      199383
      203367
      207376
      211397
      215419
      219419
      223435
      227446
      231472
      235480
      239486
      243443
      247390
      251285
      255179
      259111
      263073
      267058
      271064
      275068
      279072
      283078
      287090
      291104
      295112
      299121
      303141
      307180
      311216
      315258
      319296
      323313
      327328
      331339
      335356
      339371
      343356
      347338
      351346
      355320
      359269
      363230
      367232
      371249
      375261
      379269
      383272
      387301
      391282
      395238
      399201
      403178
      407166
      411168
      415145
      419166
      423195
      427224
      431249
      435278
      439301
      443302
      447280
      451263
      455264
      459260
      463262
      467223
      471106
      474956
      478803
      482616
      486453
      490274
      494112
      497944
      501774
      505573
      509372
      513206
      517054
      520886
      524744
      528565
      532411
      536272
      540106
      543919
      547760
      551603
      555459
      559289
      563138
      567000
      570873
      574719
      578560
      582413
      586270
      590160
      594048
      597923
      601797
      605666
      609564
      613468
      617329
      621193
      625093
      628977
      632882
      636774
      640643
      644428
      648311
      652290
      656314
      660264
      664189
      668192
      672227
      676299
      680393
      684513
      688636
      692766
      696890
      701012
      705110
      709112
      713146
      717189
      721274
      725369
      729401
      733351
      737218
      741143
      745090
      749098
      753146
      757225
      761310
      765397
      769495
      773599
      777698
      781793
      785895
      789993
      794087
      798163
      802204
      806246
      810283
      814314
      818345
      822380
      826416
      830456
      834516
      838569
      842558
      846540
      850543
      854543
      858524
      862527
      866542
      870579
      874575
      878556
      882537
      886547
      890553
      894557
      898569
      902556
      906540
      910528
      914528
      918499
      922477
      926479
      930467
      934439
      938415
      942400
      946389
      950421
      954458
      958490
      962478
      966460
      970444
      974425
      978404
      982317
      986254
      990174
      994103
      998065
     1002011
     1005941
     1009856
     1013792
     1017762
     1021731
     1025725
     1029701
     1033669
     1037662
     1041582
     1045530
     1049506
     1053503
     1057492
     1061476
     1065486
     1069500
     1073514
     1077548
     1081563
     1085552
     1089497
     1093479
     1097470
     1101474
     1105490
     1109519
     1113518
     1117498
     1121495
     1125449
     1129405
     1133378
     1137379
     1141335
     1145286
     1149218
     1153127
     1157056
     1160978
     1164900
     1168807
     1172746
     1176717
     1180671
     1184641
     1188600
     1192541
     1196497
     1200415
     1204330
     1208258
     1212206
     1216143
     1220075
     1224013
     1227978
     1231948
     1235878
     1239802
     1243755
     1247704
     1251665
     1255598
     1259549
     1263517
     1267476
     1271435
     1275405
     1279378
     1283344
     1287281
     1291235
     1295201
     1299121
     1303043
     1306960
     1310886
     1314838
     1318832
     1322850
     1326852
     1330834
     1334808
     1338767
     1342707
     1346600
     1350523
     1354408
     1358306
     1362230
     1366152
     1370086
     1374018
     1377935
     1381832
     1385734
     1389626
     1393526
     1397420
     1401343
     1405226
     1409092
     1412965
     1416845
     1420728
     1424606
     1428498
     1432382
     1436272
     1440163
     1444036
     1447915
     1451798
     1455690
     1459580
     1463478
     1467375
     1471281
     1475199
     1479122
     1483056
     1487008
     1490969
     1494924
     1498892
     1502877
     1506852
     1510834
     1514823
     1518804
     1522795
     1526807
     1530825
     1534835
     1538848
     1542852
     1546826
     1550746
     1554711
     1558700
     1562681
     1566677
     1570683
     1574673
     1578643
     1582574
     1586522
     1590476
     1594434
     1598394
     1602367
     1606352
     1610348
     1614315
     1618243
     1622168
     1626132
     1630081
     1634047
     1638034
     1642038
     1646015
     1649976
     1653960
     1657946
     1661918
     1665851
     1669772
     1673704
     1677636
     1681572
     1685495
     1689445
     1693382
     1697327
     1701299
     1705267
     1709192
     1713127
     1717060
     1721018
     1724939
     1728871
     1732808
     1736784
     1740778
     1744758
     1748744
     1752733
     1756713
     1760666
     1764616
     1768598
     1772573
     1776547
     1780515
     1784469
     1788441
     1792381
     1796313
     1800252
     1804198
     1808164
     1812147
     1816143
     1820121
     1824093
     1828065
     1832044
     1836004
     1839979
     1843952
     1847899
     1851865
     1855827
     1859806
     1863794
     1867767
     1871763
     1875714
     1879687
     1883583
     1887474
     1891392
     1895352
     1899314
     1903265
     1907237
     1911234
     1915232
     1919192
     1923169
     1927159
     1931173
     1935180
     1939154
     1943107
     1947076
     1951032
     1955021
     1959001
     1962975
     1966984
     1971003
     1975037
     1979082
     1983120
     1987137
     1991119
     1995108
     1999112
     2003074
     2007048
     2011034
     2015033
     2019027
     2023039
     2027058
     2031086
     2035109
     2039114
     2043112
     2047102
     2051068
     2055039
     2058991
     2062981
     2066999
     2071035
     2075072
     2079108
     2083123
     2087131
     2091083
     2095026
     2098980
     2102919
     2106858
     2110823
     2114816
     2118812
     2122821
     2126832
     2130819
     2134802
     2138796
     2142790
     2146799
     2150797
     2154765
     2158725
     2162705
     2166706
     2170710
     2174702
     2178703
     2182712
     2186730
     2190731
     2194694
     2198656
     2202601
     2206558
     2210525
     2214498
     2218468
     2222472
     2226508
     2230523
     2234514
     2238530
     2242534
     2246513
     2250523
     2254546
     2258594
     2262645
     2266698
     2270720
     2274711
     2278700
     2282682
     2286673
     2290665
     2294672
     2298660
     2302608
     2306568
     2310532
     2314502
     2318494
     2322485
     2326478
     2330483
     2334498
     2338498
     2342481
     2346471
     2350425
     2354386
     2358358
     2362343
     2366299
     2370242
     2374200
     2378178
     2382126
     2386109
     2390112
     2394129
     2398139
     2402109
     2406073
     2410066
     2414054
     2418041
     2422029
     2426012
     2430001
     2433993
     2437987
     2441979
     2445986
     2449996
     2454006
     2458021
     2462035
     2466041
     2470059
     2474088
     2478122
     2482143
     2486168
     2490193
     2494209
     2498215
     2502200
     2506174
     2510125
     2514048
     2517973
     2521888
     2525796
     2529714
     2533622
     2537526
     2541415
     2545301
     2549197
     2553092
     2556974
     2560850
     2564739
     2568634
     2572534
     2576437
     2580337
     2584241
     2588166
     2592111
     2596058
     2600013
     2603973
     2607954
     2611939
     2615926
     2619928
     2623953
     2627957
     2631965
     2635985
     2640011
     2644035
     2648055
     2652089
     2656102
     2660099
     2664081
     2668046
     2671993
     2675946
     2679901
     2683862
     2687816
     2691776
     2695737
     2699699
     2703667
     2707641
     2711619
     2715594
     2719559
     2723524
     2727511
     2731499
     2735494
     2739501
     2743511
     2747520
     2751534
     2755559
     2759572
     2763588
     2767599
     2771617
     2775624
     2779625
     2783627
     2787613
     2791609
     2795595
     2799584
     2803569
     2807559
     2811559
     2815553
     2819557
     2823574
     2827583
     2831616
     2835645
     2839667
     2843691
     2847705
     2851732
     2855744
     2859754
     2863769
     2867795
     2871810
     2875808
     2879799
     2883807
     2887817
     2891817
     2895824
     2899834
     2903827
     2907815
     2911811
     2915802
     2919815
     2923842
     2927889
     2931923
     2935962
     2940007
     2944043
     2948093
     2952132
     2956177
     2960231
     2964284
     2968306
     2972328
     2976357
     2980388
     2984407
     2988414
     2992403
     2996395
     3000399
     3004375
     3008316
     3012285
     3016272
     3020271
     3024252
     3028233
     3032220
     3036203
     3040184
     3044177
     3048196
     3052209
     3056221
     3060230
     3064239
     3068269
     3072301
     3076346
     3080381
     3084424
     3088473
     3092525
     3096577
     3100628
     3104663
     3108708
     3112706
     3116658
     3120632
     3124629
     3128643
     3132653
     3136685
     3140727
     3144767
     3148795
     3152840
     3156882
     3160915
     3164883
     3168822
     3172756
     3176685
     3180625
     3184550
     3188481
     3192400
     3196310
     3200207
     3204108
     3208010
     3211910
     3215809
     3219731
     3223667
     3227614
     3231578
     3235544
     3239516
     3243483
     3247463
     3251437
     3255421
     3259411
     3263394
     3267397
     3271410
     3275421
     3279443
     3283471
     3287505
     3291489
     3295458
     3299426
     3303403
     3307398
     3311389
     3315388
     3319403
     3323436
     3327460
     3331490
     3335520
     3339546
     3343568
     3347583
     3351590
     3355605
     3359625
     3363619
     3367595
     3371578
     3375544
     3379512
     3383494
     3387468
     3391445
     3395434
     3399430
     3403410
     3407397
     3411383
     3415386
     3419381
     3423383
     3427389
     3431393
     3435411
     3439419
     3443428
     3447419
     3451391
     3455399
     3459421
     3463434
     3467440
     3471442
     3475461
     3479475
     3483506
     3487577
     3491658
     3495733
     3499809
     3503878
     3507948
     3512022
     3516096
     3520167
     3524208
     3528190
     3532192
     3536214
     3540258
     3544283
     3548292
     3552304
     3556316
     3560327
     3564360
     3568400
     3572453
     3576511
     3580564
     3584621
     3588675
     3592745
     3596803
     3600853
     3604898
     3608930
     3612979
     3617053
     3621126
     3625195
     3629263
     3633317
     3637346
     3641373
     3645388
     3649398
     3653420
     3657443
     3661470
     3665494
     3669536
     3673586
     3677666
     3681754
     3685845
     3689908
     3693974
     3698054
     3702128
     3706159
     3710169
     3714170
     3718172
     3722177
     3726182
     3730194
     3734194
     3738207
     3742225
     3746220
     3750214
     3754245
     3758293
     3762363
     3766412
     3770458
     3774501
     3778559
     3782627
     3786671
     3790726
     3794796
     3798862
     3802902
     3806947
     3810987
     3815010
     3819043
     3823087
     3827116
     3831131
     3835132
     3839132
     3843138
     3847103
     3851025
     3854966
     3858912
     3862860
     3866824
     3870796
     3874769
     3878749
     3882747
     3886779
     3890817
     3894865
     3898915
     3902976
     3907048
     3911115
     3915175
     3919241
     3923292
     3927350
     3931410
     3935426
     3939444
     3943465
     3947499
     3951524
     3955545
     3959573
     3963596
     3967622
     3971660
     3975702
     3979742
     3983783
     3987838
     3991898
     3995960
     4000029
     4004078
     4008134
     4012156
     4016130
     4020114
     4024105
     4028098
     4032092
     4036085
     4040087
     4044085
     4048096
     4052113
     4056139
     4060163
     4064183
     4068198
     4072226
     4076253
     4080274
     4084284
     4088300
     4092327
     4096361
     4100393
     4104441
     4108490
     4112541
     4116618
     4120704
     4124789
     4128859
     4132922
     4136960
     4140962
     4144960
     4148964
     4152976
     4156984
     4161010
     4165036
     4169055
     4173082
     4177105
     4181124
     4185116
     4189129
     4193125
     4197126
     4201112
     4205073
     4209067
     4213085
     4217127
     4221149
     4225176
     4229213
     4233233
     4237257
     4241299
     4245353
     4249402
     4253465
     4257546
     4261616
     4265685
     4269740
     4273770
     4277772
     4281796
     4285830
     4289875
     4293914
     4297906
     4301886
     4305870
     4309869
     4313872
     4317897
     4321956
     4326016
     4330050
     4334044
     4338007
     4341998
     4345997
     4350030
     4354069
     4358112
     4362140
     4366148
     4370165
     4374180
     4378202
     4382226
     4386259
     4390305
     4394359
     4398422
     4402480
     4406545
     4410617
     4414687
     4418732
     4422762
     4426779
     4430805
     4434825
     4438851
     4442879
     4446894
     4450907
     4454894
     4458898
     4462903
     4466938
     4470974
     4475032
     4479088
     4483141
     4487197
     4491234
     4495225
     4499191
     4503198
     4507217
     4511210
     4515168
     4519133
     4523104
     4527104
     4531132
     4535158
     4539192
     4543239
     4547301
     4551361
     4555434
     4559491
     4563523
     4567540
     4571520
     4575511
     4579522
     4583551
     4587582
     4591633
     4595683
     4599730
     4603771
     4607801
     4611796
     4615777
     4619778
     4623806
     4627846
     4631883
     4635926
     4639940
     4643943
     4647938
     4651959
     4655978
     4660002
     4664002
     4668000
     4671992
     4676003
     4680026
     4684053
     4688091
     4692124
     4696151
     4700176
     4704214
     4708258
     4712293
     4716320
     4720341
     4724340
     4728341
     4732305
     4736259
     4740200
     4744139
     4748085
     4752027
     4755972
     4759921
     4763863
     4767812
     4771762
     4775704
     4779654
     4783602
     4787555
     4791526
     4795501
     4799479
     4803445
     4807430
     4811418
     4815408
     4819409
     4823414
     4827426
     4831422
     4835434
     4839461
     4843499
     4847544
     4851590
     4855623
     4859659
     4863693
     4867723
     4871761
     4875800
     4879843
     4883846
     4887828
     4891825
     4895829
     4899828
     4903832
     4907831
     4911838
     4915846
     4919871
     4923904
     4927947
     4931987
     4936003
     4940001
     4943996
     4947989
     4951980
     4955991
     4960022
     4964058
     4968077
     4972065
     4976013
     4979945
     4983869
     4987804
     4991762
     4995742
     4999744
     5003760
     5007789
     5011830
     5015876
     5019933
     5023994
     5028061
     5032133
     5036207
     5040263
     5044327
     5048377
     5052414
     5056429
     5060434
     5064451
     5068463
     5072484
     5076528
     5080567
     5084578
     5088584
     5092596
     5096567
     5100534
     5104507
     5108479
     5112450
     5116430
     5120434
     5124446
     5128462
     5132484
     5136523
     5140556
     5144596
     5148617
     5152641
     5156663
     5160686
     5164699
     5168699
     5172699
     5176705
     5180725
     5184757
     5188784
     5192805
     5196834
     5200873
     5204909
     5208945
     5212975
     5217006
     5221042
     5225079
     5229120
     5233164
     5237201
     5241242
     5245294
     5249347
     5253400
     5257448
     5261490
     5265515
     5269551
     5273591
     5277634
     5281682
     5285710
     5289743
     5293785
     5297824
     5301854
     5305878
     5309903
     5313942
     5317983
     5322030
     5326076
     5330120
     5334165
     5338197
     5342218
     5346246
     5350289
     5354334
     5358376
     5362410
     5366447
     5370480
     5374508
     5378539
     5382555
     5386575
     5390581
     5394589
     5398587
     5402567
     5406527
     5410487
     5414451
     5418416
     5422379
     5426322
     5430276
     5434236
     5438188
     5442136
     5446093
     5450048
     5453997
     5457928
     5461880
     5465829
     5469775
     5473720
     5477649
     5481580
     5485513
     5489465
     5493409
     5497345
     5501278
     5505211
     5509143
     5513069
     5517001
     5520927
     5524844
     5528750
     5532681
     5536611
     5540550
     5544491
     5548456
     5552433
     5556389
     5560351
     5564318
     5568287
     5572273
     5576267
     5580265
     5584265
     5588259
     5592228
     5596193
     5600148
     5604130
     5608120
     5612096
     5616059
     5620002
     5623923
     5627841
     5631767
     5635696
     5639637
     5643580
     5647528
     5651484
     5655445
     5659422
     5663381
     5667342
     5671308
     5675288
     5679276
     5683270
     5687272
     5691312
     5695354
     5699406
     5703458
     5707510
     5711557
     5715603
     5719638
     5723673
     5727703
     5731738
     5735787
     5739836
     5743881
     5747920
     5751938
     5755954
     5759963
     5763966
     5767981
     5771990
     5776001
     5780011
     5784037
     5788064
     5792097
     5796142
     5800184
     5804210
     5808231
     5812258
     5816285
     5820321
     5824348
     5828380
     5832387
     5836390
     5840396
     5844394
     5848380
     5852371
     5856378
     5860376
     5864372
     5868367
     5872371
     5876382
     5880394
     5884403
     5888413
     5892422
     5896452
     5900485
     5904513
     5908537
     5912551
     5916547
     5920559
     5924570
     5928574
     5932583
     5936603
     5940627
     5944655
     5948682
     5952712
     5956730
     5960753
     5964775
     5968791
     5972813
     5976828
     5980847
     5984871
     5988905
     5992946
     5996976
     6001008
     6005037
     6009070
     6013110
     6017147
     6021172
     6025196
     6029229
     6033269
     6037305
     6041327
     6045350
     6049394
     6053439
     6057493
     6061527
     6065539
     6069550
     6073565
     6077555
     6081556
     6085555
     6089552
     6093548
     6097544
     6101550
     6105561
     6109568
     6113580
     6117603
     6121638
     6125678
     6129712
     6133750
     6137791
     6141828
     6145863
     6149891
     6153904
     6157934
     6161941
     6165948
     6169959
     6173953
     6177946
     6181929
     6185929
     6189920
     6193913
     6197929
     6201933
     6205937
     6209952
     6213972
     6217983
     6222010
     6226027
     6230052
     6234082
     6238107
     6242150
     6246196
     6250246
     6254306
     6258370
     6262459
     6266550
     6270626
     6274689
     6278754
     6282832
     6286904
     6290980
     6295061
     6299141
     6303184
     6307212
     6311252
     6315296
     6319340
     6323389
     6327421
     6331448
     6335490
     6339516
     6343513
     6347512
     6351504
     6355506
     6359508
     6363511
     6367503
     6371487
     6375463
     6379454
     6383418
     6387393
     6391381
     6395367
     6399356
     6403342
     6407334
     6411322
     6415300
     6419290
     6423290
     6427274
     6431275
     6435277
     6439272
     6443276
     6447295
     6451314
     6455340
     6459362
     6463371
     6467370
     6471358
     6475333
     6479314
     6483285
     6487254
     6491231
     6495199
     6499170
     6503140
     6507109
     6511085
     6515052
     6519024
     6522998
     6526968
     6530954
     6534943
     6538945
     6542936
     6546938
     6550946
     6554940
     6558934
     6562921
     6566910
     6570903
     6574889
     6578885
     6582897
     6586897
     6590897
     6594890
     6598886
     6602888
     6606887
     6610900
     6614927
     6618951
     6622982
     6627027
     6631062
     6635100
     6639140
     6643183
     6647223
     6651279
     6655345
     6659387
     6663428
     6667468
     6671525
     6675599
     6679669
     6683735
     6687796
     6691836
     6695845
     6699841
     6703815
     6707786
     6711755
     6715729
     6719694
     6723654
     6727616
     6731579
     6735530
     6739508
     6743489
     6747476
     6751482
     6755524
     6759584
     6763666
     6767749
     6771828
     6775908
     6780009
     6784093
     6788186
     6792269
     6796347
     6800421
     6804494
     6808570
     6812632
     6816690
     6820753
     6824806
     6828861
     6832917
     6836955
     6840980
     6844995
     6849003
     6853015
     6857027
     6861032
     6865044
     6869058
     6873074
     6877099
     6881132
     6885155
     6889189
     6893224
     6897258
     6901294
     6905330
     6909362
     6913398
     6917434
     6921468
     6925506
     6929553
     6933602
     6937638
     6941671
     6945716
     6949750
     6953796
     6957843
     6961884
     6965923
     6969971
     6974033
     6978077
     6982117
     6986166
     6990205
     6994239
     6998277
     7002313
     7006352
     7010398
     7014425
     7018435
     7022450
     7026463
     7030495
     7034534
     7038554
     7042564
     7046561
     7050565
     7054570
     7058562
     7062552
     7066538
     7070519
     7074511
     7078507
     7082513
     7086514
     7090519
     7094524
     7098530
     7102545
     7106559
     7110578
     7114588
     7118621
     7122634
     7126659
     7130684
     7134709
     7138738
     7142769
     7146809
     7150837
     7154874
     7158910
     7162956
     7166978
     7171000
     7175039
     7179083
     7183120
     7187168
     7191213
     7195258
     7199294
     7203330
     7207370
     7211417
     7215454
     7219512
     7223569
     7227620
     7231669
     7235703
     7239748
     7243800
     7247857
     7251908
     7255957
     7260006
     7264062
     7268106
     7272157
     7276228
     7280297
     7284358
     7288427
     7292492
     7296567
     7300647
     7304722
     7308792
     7312855
     7316934
     7321019
     7325111
     7329192
     7333268
     7337344
     7341412
     7345485
     7349554
     7353647
     7357738
     7361811
     7365870
     7369908
     7373918
     7377942
     7381985
     7386043
     7390093
     7394147
     7398208
     7402279
     7406366
     7410449
     7414519
     7418594
     7422668
     7426749
     7430827
     7434906
     7438975
     7443025
     7447080
     7451138
     7455192
     7459264
     7463334
     7467400
     7471470
     7475541
     7479615
     7483683
     7487752
     7491813
     7495865
     7499920
     7503980
     7508038
     7512099
     7516152
     7520210
     7524277
     7528342
     7532416
     7536491
     7540568
     7544625
     7548671
     7552722
     7556735
     7560725
     7564705
     7568686
     7572674
     7576663
     7580665
     7584663
     7588675
     7592711
     7596763
     7600826
     7604887
     7608954
     7613018
     7617107
     7621195
     7625267
     7629345
     7633431
     7637527
     7641623
     7645728
     7649817
     7653904
     7657998
     7662097
     7666199
     7670279
     7674323
     7678353
     7682356
     7686390
     7690432
     7694484
     7698535
     7702584
     7706631
     7710689
     7714754
     7718846
     7722943
     7727048
     7731146
     7735233
     7739317
     7743402
     7747482
     7751580
     7755672
     7759754
     7763832
     7767904
     7771970
     7776025
     7780077
     7784128
     7788184
     7792222
     7796260
     7800297
     7804325
     7808357
     7812396
     7816433
     7820462
     7824485
     7828482
     7832506
     7836522
     7840532
     7844546
     7848562
     7852576
     7856592
     7860597
     7864614
     7868629
     7872642
     7876652
     7880661
     7884675
     7888667
     7892659
     7896641
     7900609
     7904571
     7908526
     7912487
     7916443
     7920416
     7924381
     7928347
     7932307
     7936265
     7940212
     7944164
     7948120
     7952074
     7956026
     7959993
     7963986
     7967992
     7971984
     7975987
     7979997
     7984016
     7988038
     7992046
     7996048
     8000061
     8004071
     8008084
     8012084
     8016092
     8020097
     8024108
     8028117
     8032122
     8036131
     8040140
     8044155
     8048181
     8052224
     8056280
     8060334
     8064397
     8068449
     8072514
     8076589
     8080664
     8084738
     8088814
     8092885
     8096964
     8101053
     8105141
     8109210
     8113286
     8117365
     8121444
     8125517
     8129593
     8133656
     8137724
     8141794
     8145863
     8149940
     8154010
     8158067
     8162131
     8166193
     8170264
     8174324
     8178388
     8182452
     8186515
     8190574
     8194618
     8198634
     8202665
     8206712
     8210771
     8214833
     8218895
     8222946
     8226990
     8231025
     8235075
     8239129
     8243179
     8247234
     8251276
     8255330
     8259383
     8263433
     8267472
     8271520
     8275560
     8279581
     8283601
     8287611
     8291603
     8295609
     8299627
     8303647
     8307675
     8311727
     8315767
     8319808
     8323851
     8327886
     8331894
     8335899
     8339905
     8343915
     8347927
     8351927
     8355946
     8359965
     8363978
     8368002
     8372043
     8376075
     8380103
     8384132
     8388164
     8392179
     8396192
     8400219
     8404247
     8408270
     8412291
     8416306
     8420316
     8424340
     8428346
     8432366
     8436372
     8440394
     8444417
     8448451
     8452485
     8456526
     8460570
     8464622
     8468676
     8472715
     8476740
     8480752
     8484767
     8488784
     8492805
     8496824
     8500828
     8504833
     8508849
     8512857
     8516867
     8520880
     8524878
     8528863
     8532846
     8536834
     8540821
     8544801
     8548789
     8552777
     8556759
     8560748
     8564737
     8568733
     8572736
     8576747
     8580759
     8584766
     8588782
     8592798
     8596811
     8600841
     8604887
     8608915
     8612956
     8616988
     8621010
     8625039
     8629076
     8633118
     8637153
     8641178
     8645206
     8649245
     8653281
     8657327
     8661362
     8665383
     8669415
     8673445
     8677469
     8681479
     8685496
     8689519
     8693548
     8697572
     8701609
     8705651
     8709683
     8713723
     8717743
     8721758
     8725786
     8729794
     8733793
     8737782
     8741789
     8745807
     8749830
     8753850
     8757879
     8761920
     8765955
     8769975
     8774008
     8778035
     8782051
     8786077
     8790110
     8794150
     8798191
     8802240
     8806288
     8810328
     8814359
     8818401
     8822446
     8826492
     8830544
     8834589
     8838644
     8842696
     8846756
     8850813
     8854861
     8858905
     8862935
     8866963
     8870988
     8874983
     8878979
     8882959
     8886949
     8890937
     8894939
     8898951
     8902959
     8906965
     8910987
     8915009
     8919029
     8923062
     8927089
     8931112
     8935139
     8939167
     8943184
     8947201
     8951226
     8955249
     8959275
     8963293
     8967308
     8971311
     8975303
     8979300
     8983296
     8987280
     8991265
     8995262
     8999263
     9003258
     9007269
     9011290
     9015303
     9019328
     9023368
     9027398
     9031433
     9035455
     9039489
     9043537
     9047577
     9051627
     9055678
     9059727
     9063769
     9067822
     9071873
     9075923
     9079961
     9083994
     9088036
     9092064
     9096075
     9100079
     9104095
     9108106
     9112113
     9116127
     9120129
     9124133
     9128146
     9132143
     9136156
     9140174
     9144191
     9148205
     9152240
     9156241
     9160256
     9164283
     9168329
     9172376
     9176413
     9180467
     9184528
     9188550
     9192576
     9196602
     9200638
     9204672
     9208716
     9212748
     9216782
     9220816
     9224860
     9228915
     9232983
     9237055
     9241130
     9245212
     9249291
     9253362
     9257441
     9261524
     9265589
     9269656
     9273719
     9277780
     9281846
     9285911
     9289986
     9294053
     9298101
     9302140
     9306165
     9310216
     9314274
     9318328
     9322367
     9326411
     9330450
     9334491
     9338529
     9342564
     9346596
     9350635
     9354672
     9358706
     9362749
     9366799
     9370837
     9374871
     9378891
     9382923
     9386957
     9390996
     9395045
     9399088
     9403140
     9407186
     9411226
     9415280
     9419330
     9423369
     9427416
     9431467
     9435526
     9439582
     9443644
     9447708
     9451761
     9455810
     9459853
     9463889
     9467924
     9471940
     9475962
     9479990
     9484012
     9488031
     9492049
     9496058
     9500061
     9504064
     9508066
     9512083
     9516090
     9520102
     9524108
     9528117
     9532138
     9536164
     9540187
     9544216
     9548256
     9552313
     9556371
     9560429
     9564492
     9568543
     9572592
     9576647
     9580693
     9584746
     9588806
     9592848
     9596885
     9600931
     9604984
     9609046
     9613092
     9617149
     9621207
     9625270
     9629346
     9633419
     9637491
     9641555
     9645623
     9649703
     9653762
     9657808
     9661863
     9665909
     9669950
     9673975
     9677983
     9681998
     9686020
     9690028
     9694049
     9698061
     9702079
     9706115
     9710156
     9714193
     9718229
     9722283
     9726337
     9730386
     9734457
     9738541
     9742627
     9746720
     9750810
     9754899
     9759005
     9763110
     9767208
     9771289
     9775361
     9779428
     9783489
     9787543
     9791591
     9795638
     9799693
     9803740
     9807796
     9811856
     9815909
     9819980
     9824053
     9828134
     9832224
     9836328
     9840427
     9844512
     9848598
     9852680
     9856774
     9860862
     9864950
     9869032
     9873108
     9877176
     9881239
     9885292
     9889346
     9893405
     9897463
     9901515
     9905567
     9909612
     9913662
     9917703
     9921747
     9925794
     9929846
     9933907
     9937969
     9942028
     9946097
     9950161
     9954221
     9958283
     9962352
     9966421
     9970488
     9974550
     9978612
     9982679
     9986741
     9990792
     9994851
     9998913
    10002975
    10007022
    10011084
    10015147
    10019216
    10023266
    10027319
    10031372
    10035423
    10039468
    10043491
    10047536
    10051580
    10055617
    10059672
    10063711
    10067758
    10071809
    10075873
    10079933
    10084007
    10088078
    10092141
    10096205
    10100270
    10104352
    10108426
    10112502
    10116582
    10120654
    10124716
    10128793
    10132858
    10136936
    10141007
    10145079
    10149140
    10153182
    10157205
    10161241
    10165281
    10169310
    10173357
    10177393
    10181421
    10185449
    10189481
    10193509
    10197546
    10201585
    10205631
    10209660
    10213691
    10217719
    10221765
    10225807
    10229853
    10233884
    10237912
    10241941
    10245957
    10249969
    10253984
    10257992
    10262013
    10266040
    10270054
    10274075
    10278103
    10282117
    10286133
    10290128
    10294135
    10298149
    10302157
    10306179
    10310198
    10314224
    10318246
    10322277
    10326315
    10330362
    10334424
    10338495
    10342553
    10346619
    10350700
    10354787
    10358869
    10362959
    10367059
    10371139
    10375229
    10379316
    10383404
    10387496
    10391568
    10395637
    10399709
    10403778
    10407835
    10411898
    10415953
    10420000
    10424061
    10428112
    10432162
    10436229
    10440307
    10444376
    10448446
    10452515
    10456582
    10460652
    10464715
    10468802
    10472882
    10476947
    10481004
    10485062
    10489115
    10493153
    10497185
    10501210
    10505240
    10509290
    10513321
    10517347
    10521356
    10525373
    10529399
    10533430
    10537460
    10541508
    10545571
    10549637
    10553708
    10557780
    10561862
    10565937
    10570009
    10574081
    10578140
    10582203
    10586259
    10590308
    10594343
    10598380
    10602424
    10606462
    10610508
    10614547
    10618597
    10622643
    10626677
    10630717
    10634767
    10638828
    10642895
    10646944
    10650992
    10655045
    10659089
    10663129
    10667160
    10671204
    10675250
    10679294
    10683312
    10687311
    10691313
    10695346
    10699386
    10703438
    10707497
    10711548
    10715615
    10719692
    10723757
    10727821
    10731877
    10735948
    10740016
    10744088
    10748148
    10752216
    10756296
    10760380
    10764469
    10768554
    10772641
    10776709
    10780781
    10784858
    10788944
    10793026
    10797117
    10801202
    10805282
    10809348
    10813410
    10817475
    10821540
    10825610
    10829663
    10833713
    10837757
    10841806
    10845857
    10849888
    10853919
    10857932
    10861931
    10865939
    10869954
    10873970
    10877999
    10882038
    10886068
    10890110
    10894146
    10898182
    10902207
    10906231
    10910254
    10914283
    10918314
    10922352
    10926385
    10930431
    10934470
    10938509
    10942549
    10946597
    10950642
    10954680
    10958713
    10962745
    10966779
    10970809
    10974846
    10978886
    10982915
    10986959
    10991004
    10995046
    10999096
    11003150
    11007202
    11011248
    11015286
    11019332
    11023377
    11027428
    11031494
    11035549
    11039608
    11043660
    11047705
    11051748
    11055790
    11059833
    11063872
    11067911
    11071960
    11076030
    11080023
    11083986
    11087945
    11091916
    11095872
    11099833
    11103796
    11107769
    11111742
    11115736
    11119719
    11123718
    11127719
    11131699
    11135676
    11139657
    11143642
    11147645
    11151633
    11155622
    11159629
    11163627
    11167630
    11171624
    11175627
    11179628
    11183630
    11187605
    11191581
    11195562
    11199567
    11203565
    11207570
    11211588
    11215607
    11219625
    11223623
    11227609
    11231611
    11235614
    11239609
    11243592
    11247582
    11251581
    11255576
    11259589
    11263602
    11267627
    11271659
    11275691
    11279726
    11283756
    11287785
    11291806
    11295836
    11299882
    11303916
    11307927
    11311932
    11315957
    11319978
    11324008
    11328023
    11332026
    11336032
    11340043
    11344054
    11348063
    11352075
    11356088
    11360099
    11364097
    11368093
    11372084
    11376078
    11380072
    11384075
    11388080
    11392086
    11396089
    11400092
    11404092
    11408093
    11412106
    11416097
    11420099
    11424097
    11428073
    11432071
    11436084
    11440110
    11444142
    11448176
    11452206
    11456239
    11460273
    11464292
    11468318
    11472338
    11476361
    11480394
    11484419
    11488438
    11492447
    11496443
    11500442
    11504427
    11508416
    11512415
    11516430
    11520441
    11524440
    11528440
    11532440
    11536420
    11540386
    11544352
    11548310
    11552275
    11556254
    11560241
    11564207
    11568180
    11572166
    11576140
    11580097
    11584058
    11588013
    11591978
    11595958
    11599949
    11603945
    11607945
    11611944
    11615941
    11619957
    11623973
    11627982
    11631998
    11636008
    11640018
    11644038
    11648066
    11652091
    11656115
    11660133
    11664143
    11668156
    11672170
    11676173
    11680173
    11684174
    11688170
    11692173
    11696187
    11700198
    11704213
    11708237
    11712259
    11716288
    11720331
    11724351
    11728389
    11732420
    11736449
    11740481
    11744511
    11748537
    11752576
    11756613
    11760648
    11764613
    11768589
    11772587
    11776579
    11780593
    11784579
    11788575
    11792560
    11796566
    11800583
    11804605
    11808631
    11812670
    11816729
    11820777
    11824823
    11828875
    11832942
    11836996
    11841044
    11845088
    11849118
    11853145
    11857162
    11861179
    11865192
    11869214
    11873217
    11877223
    11881225
    11885219
    11889202
    11893175
    11897154
    11901112
    11905079
    11909050
    11913019
    11916990
    11920975
    11924973
    11928977
    11932984
    11937000
    11941017
    11945041
    11949062
    11953096
    11957130
    11961173
    11965226
    11969284
    11973343
    11977405
    11981473
    11985535
    11989606
    11993680
    11997745
    12001809
    12005883
    12009965
    12014050
    12018131
    12022213
    12026296
    12030370
    12034445
    12038526
    12042602
    12046651
    12050708
    12054784
    12058870
    12062939
    12067019
    12071099
    12075178
    12079264
    12083358
    12087436
    12091493
    12095560
    12099650
    12103657
    12107684
    12111746
    12115809
    12119893
    12123977
    12128035
    12132087
    12136113
    12140127
    12144141
    12148133
    12152119
    12156090
    12160067
    12164041
    12168018
    12171987
    12175963
    12179945
    12183921
    12187908
    12191893
    12195879
    12199870
    12203872
    12207884
    12211903
    12215925
    12219935
    12223956
    12227963
    12231972
    12235974
    12239969
    12243968
    12247964
    12251950
    12255939
    12259938
    12263927
    12267919
    12271919
    12275923
    12279941
    12283967
    12287981
    12291997
    12295999
    12300011
    12304018
    12308031
    12312044
    12316049
    12320060
    12324069
    12328068
    12332068
    12336066
    12340074
    12344105
    12348121
    12352132
    12356137
    12360148
    12364159
    12368165
    12372159
    12376156
    12380147
    12384140
    12388141
    12392135
    12396131
    12400139
    12404140
    12408126
    12412133
    12416145
    12420159
    12424176
    12428187
    12432185
    12436192
    12440200
    12444213
    12448226
    12452236
    12456247
    12460255
    12464261
    12468258
    12472255
    12476264
    12480298
    12484326
    12488364
    12492405
    12496442
    12500490
    12504540
    12508599
    12512655
    12516706
    12520750
    12524798
    12528842
    12532850
    12536828
    12540791
    12544752
    12548741
    12552766
    12556802
    12560849
    12564900
    12568968
    12573042
    12577109
    12581165
    12585197
    12589204
    12593223
    12597224
    12601230
    12605243
    12609270
    12613283
    12617303
    12621325
    12625358
    12629393
    12633417
    12637446
    12641497
    12645543
    12649590
    12653626
    12657661
    12661676
    12665685
    12669689
    12673713
    12677752
    12681781
    12685824
    12689882
    12693939
    12697992
    12702003
    12706000
    12710013
    12714042
    12718081
    12722128
    12726166
    12730217
    12734285
    12738334
    12742388
    12746441
    12750499
    12754578
    12758634
    12762711
    12766781
    12770854
    12774936
    12779021
    12783089
    12787155
    12791177
    12795190
    12799217
    12803208
    12807195
    12811188
    12815210
    12819244
    12823294
    12827336
    12831376
    12835412
    12839451
    12843503
    12847551
    12851605
    12855655
    12859720
    12863780
    12867822
    12871839
    12875865
    12879899
    12883932
    12887972
    12892013
    12896050
    12900001
    12903954
    12907951
    12911973
    12916020
    12920084
    12924152
    12928213
    12932281
    12936343
    12940400
    12944456
    12948515
    12952575
    12956628
    12960681
    12964728
    12968772
    12972811
    12976850
    12980885
    12984896
    12988915
    12992939
    12996963
    13000995
    13005031
    13009060
    13013104
    13017156
    13021212
    13025267
    13029307
    13033366
    13037428
    13041474
    13045520
    13049573
    13053619
    13057666
    13061718
    13065770
    13069817
    13073870
    13077932
    13081981
    13086023
    13090062
    13094101
    13098132
    13102173
    13106215
    13110248
    13114285
    13118309
    13122342
    13126360
    13130378
    13134401
    13138423
    13142443
    13146472
    13150484
    13154479
    13158470
    13162454
    13166447
    13170450
    13174453
    13178467
    13182472
    13186484
    13190508
    13194522
    13198540
    13202571
    13206593
    13210614
    13214628
    13218655
    13222675
    13226701
    13230739
    13234773
    13238794
    13242807
    13246827
    13250835
    13254855
    13258879
    13262890
    13266903
    13270930
    13274953
    13278988
    13283031
    13287058
    13291075
    13295099
    13299123
    13303136
    13307154
    13311182
    13315213
    13319240
    13323276
    13327313
    13331356
    13335333
    13339293
    13343223
    13347129
    13351046
    13354973
    13358918
    13362878
    13366891
    13370904
    13374930
    13378960
    13383003
    13387044
    13391087
    13395125
    13399174
    13403230
    13407264
    13411301
    13415351
    13419387
    13423437
    13427483
    13431530
    13435561
    13439592
    13443616
    13447632
    13451648
    13455658
    13459661
    13463670
    13467679
    13471682
    13475683
    13479689
    13483697
    13487695
    13491696
    13495698
    13499701
    13503717
    13507726
    13511733
    13515742
    13519758
    13523765
    13527766
    13531778
    13535781
    13539791
    13543810
    13547832
    13551859
    13555898
    13559944
    13563980
    13568012
    13572035
    13576068
    13580103
    13584122
    13588140
    13592149
    13596143
    13600111
    13604093
    13608076
    13612062
    13616064
    13620067
    13624071
    13628074
    13632082
    13636099
    13640117
    13644137
    13648151
    13652171
    13656205
    13660230
    13664238
    13668238
    13672249
    13676279
    13680300
    13684319
    13688339
    13692364
    13696377
    13700387
    13704405
    13708426
    13712443
    13716463
    13720477
    13724494
    13728512
    13732542
    13736567
    13740588
    13744597
    13748611
    13752637
    13756657
    13760677
    13764710
    13768739
    13772770
    13776808
    13780843
    13784878
    13788911
    13792942
    13796967
    13801003
    13805034
    13809054
    13813083
    13817107
    13821128
    13825139
    13829145
    13833146
    13837150
    13841129
    13845111
    13849081
    13853062
    13857041
    13861016
    13864973
    13868918
    13872855
    13876787
    13880717
    13884656
    13888589
    13892530
    13896475
    13900408
    13904351
    13908283
    13912236
    13916175
    13920105
    13924044
    13927985
    13931936
    13935886
    13939818
    13943767
    13947719
    13951662
    13955597
    13959524
    13963452
    13967378
    13971313
    13975240
    13979192
    13983156
    13987110
    13991057
    13994989
    13998909
    14002821
    14006727
    14010635
    14014536
    14018429
    14022320
    14026203
    14030099
    14033989
    14037865
    14041732
    14045589
    14049441
    14053295
    14057160
    14061027
    14064897
    14068766
    14072636
    14076505
    14080367
    14084220
    14088076
    14091936
    14095798
    14099668
    14103536
    14107421
    14111310
    14115199
    14119071
    14122950
    14126827
    14130710
    14134600
    14138482
    14142371
    14146257
    14150147
    14154039
    14157936
    14161837
    14165727
    14169610
    14173493
    14177382
    14181285
    14185168
    14189047
    14192946
    14196837
    14200744
    14204672
    14208591
    14212515
    14216449
    14220375
    14224307
    14228234
    14232164
    14236105
    14240044
    14243996
    14247949
    14251901
    14255856
    14259803
    14263727
    14267642
    14271547
    14275459
    14279369
    14283263
    14287167
    14291055
    14294943
    14298842
    14302740
    14306645
    14310559
    14314469
    14318384
    14322317
    14326241
    14330152
    14334058
    14337971
    14341898
    14345817
    14349743
    14353652
    14357561
    14361462
    14365358
    14369255
    14373158
    14377063
    14380963
    14384876
    14388800
    14392724
    14396663
    14400626
    14404609
    14408600
    14412605
    14416619
    14420622
    14424639
    14428649
    14432660
    14436674
    14440679
    14444688
    14448692
    14452695
    14456702
    14460711
    14464721
    14468734
    14472747
    14476748
    14480752
    14484770
    14488769
    14492774
    14496786
    14500802
    14504822
    14508843
    14512856
    14516869
    14520861
    14524859
    14528857
    14532850
    14536843
    14540830
    14544786
    14548711
    14552623
    14556530
    14560419
    14564312
    14568213
    14572103
    14576008
    14579908
    14583816
    14587720
    14591630
    14595535
    14599444
    14603363
    14607287
    14611205
    14615130
    14619051
    14622963
    14626873
    14630782
    14634697
    14638616
    14642536
    14646462
    14650385
    14654311
    14658234
    14662154
    14666074
    14669999
    14673940
    14677883
    14681818
    14685747
    14689681
    14693618
    14697562
    14701504
    14705438
    14709384
    14713332
    14717274
    14721223
    14725164
    14729118
    14733086
    14737041
    14741002
    14744953
    14748898
    14752837
    14756790
    14760733
    14764685
    14768638
    14772599
    14776565
    14780527
    14784485
    14788443
    14792400
    14796361
    14800312
    14804275
    14808239
    14812210
    14816173
    14820129
    14824080
    14828045
    14832007
    14835980
    14839955
    14843934
    14847925
    14851906
    14855888
    14859879
    14863870
    14867869
    14871862
    14875857
    14879853
    14883839
    14887828
    14891817
    14895803
    14899798
    14903792
    14907774
    14911758
    14915734
    14919723
    14923702
    14927687
    14931667
    14935655
    14939646
    14943641
    14947630
    14951628
    14955623
    14959614
    14963598
    14967585
    14971558
    14975535
    14979499
    14983443
    14987371
    14991304
    14995224
    14999165
    15003128
    15007108
    15011083
    15015064
    15019039
    15022996
    15026961
    15030919
    15034873
    15038832
    15042789
    15046756
    15050716
    15054669
    15058629
    15062581
    15066536
    15070491
    15074447
    15078401
    15082364
    15086324
    15090285
    15094243
    15098217
    15102173
    15106121
    15110076
    15114036
    15118001
    15121967
    15125926
    15129899
    15133876
    15137854
    15141834
    15145814
    15149792
    15153758
    15157714
    15161667
    15165613
    15169558
    15173487
    15177423
    15181346
    15185278
    15189210
    15193138
    15197056
    15200986
    15204904
    15208814
    15212735
    15216661
    15220577
    15224487
    15228401
    15232307
    15236216
    15240145
    15244097
    15248049
    15251990
    15255941
    15259886
    15263852
    15267812
    15271767
    15275727
    15279696
    15283673
    15287643
    15291585
    15295537
    15299492
    15303435
    15307391
    15311356
    15315322
    15319283
    15323240
    15327218
    15331190
    15335145
    15339106
    15343082
    15347060
    15351027
    15355001
    15358977
    15362962
    15366953
    15370946
    15374934
    15378917
    15382903
    15386898
    15390870
    15394844
    15398819
    15402811
    15406790
    15410766
    15414754
    15418733
    15422709
    15426673
    15430621
    15434567
    15438516
    15442470
    15446426
    15450375
    15454327
    15458299
    15462269
    15466234
    15470199
    15474178
    15478153
    15482125
    15486095
    15490065
    15494036
    15498015
    15502002
    15505982
    15509965
    15513934
    15517910
    15521898
    15525856
    15529831
    15533792
    15537730
    15541666
    15545604
    15549539
    15553484
    15557427
    15561377
    15565334
    15569288
    15573246
    15577200
    15581147
    15585079
    15589021
    15592949
    15596875
    15600811
    15604764
    15608701
    15612655
    15616585
    15620520
    15624463
    15628407
    15632350
    15636298
    15640264
    15644238
    15648203
    15652175
    15656141
    15660110
    15664073
    15668039
    15672022
    15676007
    15679990
    15683968
    15687952
    15691943
    15695918
    15699885
    15703844
    15707817
    15711794
    15715765
    15719726
    15723686
    15727644
    15731601
    15735564
    15739536
    15743506
    15747474
    15751461
    15755447
    15759417
    15763391
    15767351
    15771329
    15775312
    15779287
    15783254
    15787222
    15791194
    15795150
    15799114
    15803058
    15806995
    15810946
    15814904
    15818869
    15822824
    15826774
    15830719
    15834681
    15838645
    15842632
    15846611
    15850587
    15854559
    15858519
    15862501
    15866470
    15870438
    15874415
    15878376
    15882338
    15886296
    15890253
    15894204
    15898152
    15902116
    15906075
    15910033
    15913992
    15917952
    15921893
    15925849
    15929805
    15933764
    15937726
    15941689
    15945652
    15949613
    15953586
    15957550
    15961508
    15965466
    15969412
    15973355
    15977300
    15981255
    15985211
    15989167
    15993137
    15997110
    16001094
    16005061
    16009031
    16012992
    16016978
    16020955
    16024920
    16028867
    16032813
    16036764
    16040740
    16044722
    16048679
    16052620
    16056556
    16060504
    16064446
    16068392
    16072343
    16076285
    16080230
    16084197
    16088153
    16092099
    16096044
    16100012
    16103961
    16107900
    16111837
    16115777
    16119712
    16123645
    16127577
    16131526
    16135466
    16139390
    16143319
    16147240
    16151179
    16155121
    16159059
    16163003
    16166954
    16170896
    16174855
    16178800
    16182753
    16186710
    16190664
    16194615
    16198554
    16202494
    16206435
    16210370
    16214321
    16218269
    16222214
    16226175
    16230161
    16234144
    16238108
    16242066
    16246030
    16249989
    16253950
    16257897
    16261859
    16265821
    16269765
    16273735
    16277719
    16281717
    16285689
    16289676
    16293649
    16297623
    16301596
    16305567
    16309571
    16313540
    16317513
    16321483
    16325460
    16329424
    16333398
    16337355
    16341317
    16345283
    16349258
    16353228
    16357196
    16361141
    16365089
    16369057
    16373031
    16376978
    16380909
    16384860
    16388823
    16392785
    16396738
    16400682
    16404650
    16408617
    16412588
    16416550
    16420521
    16424481
    16428452
    16432425
    16436383
    16440330
    16444268
    16448202
    16452134
    16456052
    16459951
    16463846
    16467742
    16471635
    16475527
    16479417
    16483306
    16487210
    16491120
    16495034
    16498952
    16502869
    16506810
    16510753
    16514690
    16518635
    16522589
    16526567
    16530536
    16534498
    16538469
    16542452
    16546439
    16550415
    16554408
    16558392
    16562355
    16566301
    16570240
    16574193
    16578156
    16582105
    16586056
    16590000
    16593961
    16597925
    16601895
    16605878
    16609861
    16613856
    16617834
    16621817
    16625815
    16629809
    16633790
    16637765
    16641753
    16645739
    16649727
    16653715
    16657712
    16661722
    16665706
    16669695
    16673687
    16677660
    16681644
    16685609
    16689554
    16693520
    16697479
    16701440
    16705388
    16709349
    16713307
    16717280
    16721199
    16725089
    16728963
    16732868
    16736790
    16740719
    16744640
    16748574
    16752528
    16756477
    16760417
    16764362
    16768320
    16772281
    16776236
    16780203
    16784172
    16788133
    16792110
    16796087
    16800099
    16804111
    16808102
    16812091
    16816114
    16820135
    16824146
    16828153
    16832167
    16836174
    16840174
    16844170
    16848166
    16852177
    16856190
    16860201
    16864206
    16868222
    16872227
    16876236
    16880217
    16884177
    16888127
    16892092
    16896062
    16900036
    16904015
    16907998
    16911971
    16915959
    16919942
    16923947
    16927916
    16931900
    16935905
    16939921
    16943924
    16947915
    16951907
    16955943
    16959949
    16963944
    16967934
    16971940
    16975946
    16979936
    16983922
    16987910
    16991901
    16995897
    16999890
    17003875
    17007856
    17011849
    17015842
    17019828
    17023819
    17027813
    17031808
    17035804
    17039798
    17043794
    17047797
    17051814
    17055817
    17059822
    17063849
    17067877
    17071918
    17075936
    17079956
    17083974
    17088012
    17092022
    17096033
    17100051
    17104070
    17108108
    17112112
    17116116
    17120116
    17124128
    17128135
    17132142
    17136146
    17140144
    17144127
    17148114
    17152103
    17156091
    17160105
    17164113
    17168116
    17172128
    17176156
    17180166
    17184172
    17188180
    17192210
    17196229
    17200247
    17204258
    17208292
    17212306
    17216322
    17220328
    17224330
    17228351
    17232365
    17236366
    17240361
    17244347
    17248323
    17252282
    17256259
    17260234
    17264221
    17268192
    17272134
    17276079
    17280033
    17284014
    17287992
    17291983
    17295980
    17299972
    17303974
    17307958
    17311952
    17315952
    17319940
    17323930
    17327933
    17331937
    17335928
    17339939
    17343921
    17347906
    17351880
    17355861
    17359847
    17363839
    17367830
    17371825
    17375819
    17379810
    17383797
    17387789
    17391789
    17395784
    17399796
    17403803
    17407819
    17411830
    17415848
    17419872
    17423886
    17427894
    17431883
    17435892
    17439911
    17443929
    17447944
    17451952
    17455971
    17459992
    17464024
    17468041
    17472054
    17476068
    17480079
    17484104
    17488126
    17492133
    17496147
    17500164
    17504194
    17508219
    17512241
    17516276
    17520308
    17524340
    17528374
    17532409
    17536431
    17540453
    17544458
    17548456
    17552461
    17556475
    17560476
    17564483
    17568508
    17572542
    17576570
    17580608
    17584654
    17588696
    17592745
    17596776
    17600808
    17604825
    17608867
    17612887
    17616928
    17620950
    17624994
    17629011
    17633009
    17637008
    17641006
    17645011
    17649009
    17653009
    17656979
    17660940
    17664925
    17668913
    17672896
    17676887
    17680879
    17684859
    17688829
    17692773
    17696728
    17700670
    17704597
    17708543
    17712473
    17716395
    17720298
    17724182
    17728058
    17731926
    17735798
    17739672
    17743535
    17747394
    17751283
    17755168
    17759063
    17762982
    17766904
    17770808
    17774698
    17778608
    17782512
    17786416
    17790323
    17794228
    17798140
    17802051
    17805964
    17809879
    17813802
    17817726
    17821641
    17825574
    17829505
    17833419
    17837340
    17841269
    17845193
    17849128
    17853065
    17857011
    17860953
    17864873
    17868794
    17872729
    17876654
    17880564
    17884478
    17888396
    17892316
    17896234
    17900151
    17904066
    17907979
    17911909
    17915843
    17919771
    17923713
    17927658
    17931604
    17935550
    17939509
    17943465
    17947402
    17951344
    17955283
    17959228
    17963155
    17967082
    17971029
    17974963
    17978890
    17982834
    17986768
    17990695
    17994619
    17998546
    18002468
    18006366
    18010288
    18014195
    18018106
    18022019
    18025953
    18029860
    18033774
    18037681
    18041592
    18045511
    18049429
    18053343
    18057270
    18061223
    18065168
    18069092
    18073018
    18076962
    18080892
    18084816
    18088745
    18092671
    18096597
    18100532
    18104492
    18108490
    18112489
    18116509
    18120537
    18124548
    18128586
    18132594
    18136610
    18140630
    18144662
    18148698
    18152705
    18156731
    18160765
    18164774
    18168790
    18172803
    18176830
    18180865
    18184867
    18188882
    18192911
    18196932
    18200925
    18204929
    18208931
    18212894
    18216861
    18220797
    18224749
    18228689
    18232641
    18236564
    18240388
    18244173
    18247955
    18251720
    18255473
    18259232
    18262999
    18266756
    18270514
    18274272
    18278011
    18281738
    18285460
    18289181
    18292921
    18296674
    18300442
    18304233
    18308035
    18311841
    18315650
    18319482
    18323326
    18327173
    18331028
    18334894
    18338759
    18342622
    18346497
    18350395
    18354294
    18358193
    18362105
    18366038
    18369980
    18373949
    18377922
    18381915
    18385909
    18389910
    18393905
    18397929
    18401950
    18405969
    18409985
    18414011
    18418048
    18422080
    18426093
    18430112
    18434122
    18438125
    18442137
    18446159
    18450186
    18454230
    18458270
    18462298
    18466312
    18470329
    18474331
    18478305
    18482256
    18486209
    18490155
    18494108
    18498086
    18502068
    18506044
    18509996
    18513951
    18517904
    18521853
    18525802
    18529753
    18533691
    18537629
    18541560
    18545496
    18549422
    18553353
    18557288
    18561228
    18565164
    18569090
    18573024
    18576952
    18580872
    18584794
    18588723
    18592652
    18596585
    18600529
    18604463
    18608395
    18612334
    18616265
    18620203
    18624158
    18628122
    18632065
    18636017
    18639981
    18643945
    18647913
    18651882
    18655858
    18659840
    18663798
    18667752
    18671715
    18675669
    18679623
    18683581
    18687532
    18691487
    18695448
    18699412
    18703374
    18707322
    18711294
    18715252
    18719225
    18723197
    18727178
    18731145
    18735111
    18739081
    18743049
    18747024
    18750998
    18754976
    18758938
    18762894
    18766869
    18770829
    18774787
    18778751
    18782718
    18786678
    18790635
    18794588
    18798540
    18802497
    18806450
    18810403
    18814357
    18818317
    18822263
    18826214
    18830165
    18834109
    18838054
    18841985
    18845920
    18849867
    18853810
    18857753
    18861677
    18865624
    18869583
    18873534
    18877492
    18881445
    18885416
    18889387
    18893351
    18897326
    18901291
    18905257
    18909215
    18913177
    18917142
    18921094
    18925035
    18928988
    18932943
    18936896
    18940857
    18944809
    18948781
    18952745
    18956709
    18960690
    18964664
    18968641
    18972624
    18976602
    18980589
    18984562
    18988549
    18992541
    18996534
    19000525
    19004527
    19008534
    19012550
    19016556
    19020553
    19024548
    19028516
    19032471
    19036412
    19040346
    19044281
    19048210
    19052149
    19056093
    19060061
    19064024
    19067990
    19071956
    19075923
    19079897
    19083866
    19087824
    19091792
    19095759
    19099729
    19103669
    19107623
    19111575
    19115530
    19119485
    19123438
    19127401
    19131359
    19135317
    19139273
    19143243
    19147211
    19151186
    19155170
    19159152
    19163119
    19167101
    19171066
    19175027
    19178991
    19182963
    19186932
    19190894
    19194861
    19198824
    19202794
    19206759
    19210713
    19214682
    19218648
    19222588
    19226541
    19230499
    19234460
    19238431
    19242391
    19246349
    19250318
    19254281
    19258259
    19262231
    19266193
    19270171
    19274136
    19278109
    19282074
    19286053
    19290022
    19293996
    19297968
    19301934
    19305896
    19309850
    19313829
    19317795
    19321753
    19325724
    19329702
    19333666
    19337623
    19341576
    19345520
    19349470
    19353447
    19357429
    19361401
    19365394
    19369383
    19373372
    19377356
    19381343
    19385336
    19389336
    19393330
    19397336
    19401339
    19405336
    19409320
    19413309
    19417302
    19421275
    19425257
    19429242
    19433218
    19437194
    19441180
    19445157
    19449154
    19453153
    19457154
    19461148
    19465155
    19469162
    19473161
    19477170
    19481165
    19485161
    19489153
    19493159
    19497156
    19501171
    19505168
    19509161
    19513162
    19517155
    19521137
    19525124
    19529116
    19533098
    19537083
    19541055
    19545025
    19548974
    19552930
    19556886
    19560844
    19564793
    19568756
    19572718
    19576680
    19580643
    19584599
    19588557
    19592520
    19596488
    19600443
    19604407
    19608370
    19612337
    19616316
    19620283
    19624250
    19628223
    19632194
    19636161
    19640128
    19644098
    19648067
    19652039
    19656007
    19659976
    19663951
    19667918
    19671881
    19675838
    19679808
    19683787
    19687767
    19691738
    19695704
    19699684
    19703656
    19707631
    19711605
    19715588
    19719571
    19723544
    19727523
    19731521
    19735507
    19739485
    19743462
    19747439
    19751413
    19755393
    19759372
    19763341
    19767319
    19771294
    19775271
    19779252
    19783226
    19787196
    19791172
    19795162
    19799154
    19803141
    19807134
    19811113
    19815108
    19819092
    19823070
    19827035
    19831017
    19834993
    19838952
    19842921
    19846882
    19850857
    19854834
    19858794
    19862761
    19866725
    19870680
    19874620
    19878558
    19882489
    19886418
    19890350
    19894284
    19898217
    19902148
    19906077
    19910014
    19913956
    19917894
    19921834
    19925765
    19929707
    19933657
    19937608
    19941543
    19945483
    19949437
    19953393
    19957344
    19961300
    19965258
    19969219
    19973186
    19977150
    19981113
    19985071
    19989040
    19993022
    19996999
    20000985
    20004956
    20008938
    20012915
    20016857
    20020801
    20024739
    20028679
    20032614
    20036539
    20040466
    20044401
    20048317
    20052248
    20056157
    20060061
    20063971
    20067861
    20071759
    20075662
    20079551
    20083440
    20087340
    20091241
    20095143
    20099050
    20102960
    20106863
    20110755
    20114656
    20118565
    20122468
    20126368
    20130285
    20134200
    20138104
    20142007
    20145912
    20149820
    20153731
    20157650
    20161580
    20165506
    20169452
    20173391
    20177330
    20181263
    20185234
    20189196
    20193151
    20197113
    20201082
    20205047
    20209012
    20212983
    20216959
    20220930
    20224899
    20228862
    20232819
    20236773
    20240733
    20244698
    20248668
    20252633
    20256601
    20260569
    20264535
    20268502
    20272456
    20276403
    20280359
    20284311
    20288266
    20292225
    20296189
    20300147
    20304105
    20308080
    20312043
    20315995
    20319946
    20323909
    20327870
    20331833
    20335805
    20339782
    20343751
    20347720
    20351675
    20355641
    20359602
    20363567
    20367533
    20371499
    20375455
    20379418
    20383381
    20387349
    20391312
    20395285
    20399269
    20403251
    20407227
    20411212
    20415184
    20419163
    20423131
    20427099
    20431055
    20435012
    20438976
    20442940
    20446911
    20450868
    20454829
    20458783
    20462746
    20466694
    20470675
    20474666
    20478649
    20482628
    20486619
    20490605
    20494581
    20498566
    20502531
    20506483
    20510440
    20514394
    20518343
    20522278
    20526211
    20530152
    20534080
    20538008
    20541928
    20545857
    20549778
    20553692
    20557593
    20561506
    20565425
    20569338
    20573246
    20577170
    20581085
    20585002
    20588921
    20592845
    20596761
    20600677
    20604594
    20608513
    20612431
    20616348
    20620268
    20624190
    20628113
    20632034
    20635950
    20639862
    20643783
    20647711
    20651628
    20655559
    20659475
    20663403
    20667316
    20671215
    20675112
    20679008
    20682910
    20686820
    20690716
    20694614
    20698505
    20702393
    20706281
    20710159
    20714038
    20717923
    20721827
    20725736
    20729638
    20733542
    20737458
    20741379
    20745303
    20749213
    20753138
    20757066
    20761012
    20764944
    20768864
    20772788
    20776680
    20780587
    20784508
    20788436
    20792378
    20796315
    20800259
    20804201
    20808133
    20812072
    20816010
    20819943
    20823872
    20827790
    20831710
    20835633
    20839567
    20843509
    20847456
    20851404
    20855359
    20859303
    20863258
    20867221
    20871177
    20875116
    20879054
    20882976
    20886909
    20890836
    20894757
    20898683
    20902624
    20906565
    20910522
    20914486
    20918444
    20922404
    20926369
    20930350
    20934338
    20938323
    20942304
    20946295
    20950276
    20954273
    20958269
    20962245
    20966216
    20970175
    20974154
    20978117
    20982095
    20986067
    20990030
    20993999
    20997970
    21001941
    21005912
    21009883
    21013857
    21017824
    21021784
    21025765
    21029735
    21033692
    21037666
    21041639
    21045621
    21049590
    21053562
    21057527
    21061494
    21065458
    21069418
    21073376
    21077355
    21081331
    21085314
    21089277
    21093236
    21097205
    21101186
    21105159
    21109118
    21113087
    21117048
    21121009
    21124961
    21128928
    21132903
    21136885
    21140857
    21144846
    21148842
    21152834
    21156818
    21160809
    21164810
    21168809
    21172804
    21176805
    21180803
    21184780
    21188751
    21192725
    21196695
    21200668
    21204632
    21208597
    21212569
    21216547
    21220521
    21224484
    21228404
    21232288
    21236155
    21240011
    21243866
    21247720
    21251577
    21255437
    21259292
    21263152
    21267026
    21270915
    21274792
    21278671
    21282547
    21286425
    21290315
    21294217
    21298122
    21302031
    21305941
    21309850
    21313774
    21317697
    21321620
    21325538
    21329467
    21333389
    21337318
    21341244
    21345175
    21349117
    21353061
    21357012
    21360955
    21364887
    21368830
    21372765
    21376701
    21380625
    21384551
    21388463
    21392386
    21396330
    21400258
    21404192
    21408134
    21412073
    21416017
    21419960
    21423903
    21427853
    21431813
    21435757
    21439727
    21443668
    21447597
    21451535
    21455445
    21459348
    21463254
    21467148
    21471044
    21474930
    21478798
    21482659
    21486546
    21490431
    21494306
    21498191
    21502060
    21505933
    21509802
    21513665
    21517527
    21521395
    21525284
    21529194
    21533108
    21537029
    21540953
    21544868
    21548777
    21552702
    21556629
    21560560
    21564496
    21568426
    21572361
    21576296
    21580235
    21584178
    21588123
    21592063
    21596005
    21599929
    21603858
    21607772
    21611692
    21615591
    21619482
    21623385
    21627291
    21631194
    21635092
    21638992
    21642883
    21646776
    21650673
    21654585
    21658494
    21662392
    21666308
    21670211
    21674128
    21678041
    21681945
    21685847
    21689748
    21693646
    21697562
    21701470
    21705379
    21709293
    21713202
    21717109
    21721025
    21724949
    21728874
    21732818
    21736768
    21740701
    21744624
    21748554
    21752496
    21756439
    21760379
    21764346
    21768324
    21772298
    21776275
    21780280
    21784278
    21788278
    21792279
    21796266
    21800251
    21804237
    21808216
    21812200
    21816188
    21820174
    21824158
    21828144
    21832132
    21836128
    21840114
    21844106
    21848101
    21852078
    21856065
    21860050
    21864037
    21868018
    21871997
    21875963
    21879943
    21883907
    21887884
    21891868
    21895852
    21899840
    21903839
    21907830
    21911774
    21915715
    21919640
    21923543
    21927444
    21931344
    21935241
    21939128
    21943022
    21946923
    21950801
    21954678
    21958549
    21962429
    21966303
    21970189
    21974071
    21977966
    21981861
    21985762
    21989660
    21993567
    21997464
    22001366
    22005275
    22009181
    22013087
    22016992
    22020885
    22024779
    22028676
    22032579
    22036480
    22040373
    22044260
    22048143
    22052020
    22055905
    22059806
    22063693
    22067596
    22071497
    22075394
    22079278
    22083175
    22087078
    22090979
    22094869
    22098755
    22102639
    22106524
    22110405
    22114282
    22118169
    22122054
    22125938
    22129828
    22133721
    22137625
    22141524
    22145411
    22149295
    22153176
    22157080
    22160999
    22164913
    22168834
    22172752
    22176682
    22180606
    22184553
    22188501
    22192450
    22196401
    22200351
    22204311
    22208265
    22212192
    22216115
    22220036
    22223950
    22227864
    22231772
    22235676
    22239576
    22243461
    22247348
    22251215
    22255087
    22258914
    22262774
    22266605
    22270405
    22274207
    22278040
    22281866
    22285693
    22289523
    22293349
    22297194
    22301053
    22304912
    22308772
    22312638
    22316506
    22320351
    22324207
    22328058
    22331920
    22335780
    22339654
    22343529
    22347403
    22351279
    22355172
    22359048
    22362938
    22366843
    22370736
    22374641
    22378542
    22382463
    22386365
    22390276
    22394206
    22398118
    22402034
    22405950
    22409865
    22413781
    22417701
    22421620
    22425542
    22429459
    22433393
    22437324
    22441247
    22445179
    22449112
    22453039
    22456966
    22460891
    22464833
    22468767
    22472703
    22476638
    22480566
    22484500
    22488436
    22492367
    22496290
    22500221
    22504139
    22508065
    22511999
    22515938
    22519885
    22523846
    22527791
    22531748
    22535699
    22539659
    22543620
    22547569
    22551520
    22555467
    22559413
    22563338
    22567268
    22571197
    22575125
    22579045
    22582975
    22586897
    22590829
    22594743
    22598671
    22602599
    22606521
    22610447
    22614354
    22618274
    22622194
    22626123
    22630063
    22634026
    22637983
    22641922
    22645873
    22649831
    22653785
    22657748
    22661705
    22665669
    22669631
    22673596
    22677555
    22681538
    22685506
    22689476
    22693458
    22697431
    22701406
    22705390
    22709363
    22713334
    22717294
    22721257
    22725217
    22729180
    22733145
    22737109
    22741054
    22744984
    22748920
    22752854
    22756791
    22760718
    22764648
    22768596
    22772546
    22776483
    22780433
    22784387
    22788327
    22792278
    22796213
    22800157
    22804109
    22808068
    22812030
    22815984
    22819941
    22823901
    22827867
    22831829
    22835789
    22839733
    22843676
    22847623
    22851581
    22855546
    22859500
    22863454
    22867412
    22871373
    22875339
    22879323
    22883294
    22887258
    22891223
    22895191
    22899168
    22903136
    22907092
    22911061
    22915025
    22918992
    22922961
    22926931
    22930911
    22934884
    22938866
    22942863
    22946860
    22950848
    22954843
    22958848
    22962849
    22966847
    22970858
    22974861
    22978862
    22982682
    22986430
    22990159
    22993869
    22997586
    23001314
    23005041
    23008777
    23012520
    23016271
    23020026
    23023802
    23027573
    23031353
    23035131
    23038916
    23042713
    23046522
    23050341
    23054159
    23057992
    23061828
    23065667
    23069508
    23073365
    23077218
    23081077
    23084942
    23088808
    23092680
    23096547
    23100414
    23104271
    23108143
    23112022
    23115900
    23119768
    23123655
    23127543
    23131434
    23135336
    23139233
    23143135
    23147040
    23150944
    23154847
    23158765
    23162681
    23166607
    23170527
    23174454
    23178379
    23182307
    23186238
    23190160
    23194075
    23197986
    23201892
    23205801
    23209721
    23213645
    23217581
    23221528
    23225471
    23229407
    23233339
    23237263
    23241186
    23245108
    23249033
    23252960
    23256881
    23260797
    23264720
    23268650
    23272584
    23276518
    23280447
    23284376
    23288315
    23292249
    23296189
    23300130
    23304076
    23308022
    23311983
    23315940
    23319894
    23323845
    23327798
    23331733
    23335663
    23339594
    23343535
    23347482
    23351418
    23355348
    23359297
    23363231
    23367178
    23371122
    23375068
    23379018
    23382958
    23386904
    23390854
    23394801
    23398771
    23402736
    23406702
    23410674
    23414641
    23418593
    23422551
    23426511
    23430472
    23434440
    23438412
    23442394
    23446379
    23450365
    23454341
    23458320
    23462295
    23466281
    23470259
    23474231
    23478207
    23482178
    23486157
    23490145
    23494133
    23498129
    23502117
    23506102
    23510094
    23514070
    23518055
    23522035
    23526015
    23529988
    23533952
    23537925
    23541897
    23545865
    23549833
    23553796
    23557753
    23561718
    23565673
    23569620
    23573581
    23577542
    23581509
    23585461
    23589409
    23593349
    23597291
    23601225
    23605144
    23609056
    23612974
    23616897
    23620820
    23624748
    23628683
    23632626
    23636584
    23640556
    23644536
    23648503
    23652470
    23656440
    23660417
    23664387
    23668354
    23672338
    23676331
    23680316
    23684308
    23688295
    23692290
    23696280
    23700281
    23704289
    23708286
    23712302
    23716300
    23720290
    23724276
    23728272
    23732271
    23736264
    23740236
    23744194
    23748139
    23752085
    23756037
    23759978
    23763923
    23767873
    23771833
    23775779
    23779731
    23783683
    23787639
    23791587
    23795542
    23799505
    23803471
    23807437
    23811407
    23815387
    23819368
    23823341
    23827313
    23831286
    23835253
    23839233
    23843215
    23847202
    23851199
    23855190
    23859180
    23863161
    23867135
    23871121
    23875107
    23879106
    23883102
    23887099
    23891085
    23895048
    23898984
    23902918
    23906844
    23910755
    23914678
    23918608
    23922542
    23926459
    23930370
    23934275
    23938170
    23942071
    23945968
    23949869
    23953768
    23957666
    23961558
    23965437
    23969315
    23973192
    23977065
    23980940
    23984803
    23988664
    23992547
    23996423
    24000310
    24004185
    24008069
    24011960
    24015854
    24019747
    24023636
    24027526
    24031421
    24035311
    24039211
    24043111
    24047006
    24050906
    24054813
    24058738
    24062659
    24066574
    24070470
    24074368
    24078268
    24082167
    24086066
    24089970
    24093863
    24097760
    24101652
    24105529
    24109398
    24113266
    24117151
    24121028
    24124906
    24128795
    24132697
    24136598
    24140484
    24144371
    24148274
    24152172
    24156046
    24159892
    24163727
    24167561
    24171397
    24175241
    24179091
    24182920
    24186780
    24190661
    24194545
    24198436
    24202335
    24206241
    24210148
    24214052
    24217927
    24221776
    24225642
    24229486
    24233331
    24237163
    24241037
    24244934
    24248853
    24252785
    24256703
    24260613
    24264526
    24268441
    24272350
    24276263
    24280183
    24284095
    24288006
    24291926
    24295851
    24299777
    24303700
    24307610
    24311506
    24315404
    24319312
    24323219
    24327126
    24331039
    24334964
    24338876
    24342791
    24346704
    24350610
    24354499
    24358390
    24362300
    24366223
    24370153
    24374076
    24378007
    24381950
    24385884
    24389820
    24393744
    24397675
    24401600
    24405539
    24409478
    24413411
    24417353
    24421279
    24425203
    24429110
    24433019
    24436951
    24440881
    24444815
    24448756
    24452694
    24456642
    24460585
    24464533
    24468482
    24472436
    24476403
    24480374
    24484339
    24488303
    24492265
    24496249
    24500227
    24504211
    24508189
    24512150
    24516103
    24520040
    24523971
    24527901
    24531829
    24535763
    24539692
    24543615
    24547533
    24551457
    24555386
    24559312
    24563245
    24567172
    24571094
    24574995
    24578919
    24582853
    24586775
    24590708
    24594643
    24598576
    24602497
    24606416
    24610322
    24614214
    24618114
    24622027
    24625917
    24629834
    24633761
    24637691
    24641628
    24645569
    24649515
    24653471
    24657424
    24661366
    24665308
    24669258
    24673187
    24677121
    24681067
    24685011
    24688966
    24692906
    24696824
    24700745
    24704669
    24708581
    24712488
    24716388
    24720282
    24724192
    24728089
    24731988
    24735876
    24739775
    24743678
    24747574
    24751487
    24755393
    24759294
    24763212
    24767124
    24771046
    24774974
    24778894
    24782819
    24786754
    24790684
    24794614
    24798530
    24802448
    24806371
    24810293
    24814220
    24818143
    24822066
    24826003
    24829936
    24833859
    24837788
    24841708
    24845632
    24849574
    24853494
    24857411
    24861335
    24865275
    24869210
    24873136
    24877053
    24880981
    24884925
    24888859
    24892797
    24896733
    24900667
    24904608
    24908555
    24912496
    24916446
    24920385
    24924333
    24928271
    24932210
    24936155
    24940100
    24944040
    24947986
    24951926
    24955852
    24959791
    24963729
    24967667
    24971614
    24975564
    24979508
    24983456
    24987399
    24991324
    24995238
    24999128
    25003010
    25006882
    25010751
    25014616
    25018479
    25022345
    25026220
    25030081
    25033946
    25037821
    25041695
    25045570
    25049437
    25053302
    25057167
    25061030
    25064897
    25068766
    25072646
    25076540
    25080433
    25084326
    25088206
    25092103
    25096009
    25099911
    25103821
    25107724
    25111627
    25115524
    25119423
    25123327
    25127228
    25131133
    25135045
    25138949
    25142845
    25146750
    25150669
    25154589
    25158505
    25162436
    25166365
    25170299
    25174234
    25178162
    25182104
    25186051
    25189989
    25193933
    25197869
    25201815
    25205760
    25209709
    25213653
    25217606
    25221553
    25225489
    25229420
    25233336
    25237257
    25241179
    25245106
    25249027
    25252935
    25256849
    25260760
    25264658
    25268573
    25272484
    25276390
    25280299
    25284213
    25288124
    25292014
    25295907
    25299802
    25303696
    25307584
    25311476
    25315370
    25319278
    25323182
    25327089
    25330994
    25334908
    25338811
    25342717
    25346625
    25350540
    25354460
    25358382
    25362304
    25366225
    25370161
    25374099
    25378037
    25381972
    25385910
    25389853
    25393792
    25397731
    25401662
    25405594
    25409520
    25413452
    25417380
    25421314
    25425252
    25429179
    25433114
    25437048
    25440986
    25444920
    25448849
    25452781
    25456717
    25460651
    25464583
    25468525
    25472460
    25476387
    25480296
    25484189
    25488062
    25491930
    25495807
    25499691
    25503583
    25507503
    25511429
    25515380
    25519334
    25523292
    25527249
    25531211
    25535183
    25539154
    25543127
    25547096
    25551060
    25555028
    25558989
    25562952
    25566909
    25570874
    25574841
    25578823
    25582797
    25586761
    25590720
    25594673
    25598627
    25602577
    25606526
    25610478
    25614431
    25618378
    25622320
    25626268
    25630232
    25634182
    25638146
    25642096
    25646049
    25649998
    25653957
    25657907
    25661861
    25665819
    25669775
    25673728
    25677691
    25681651
    25685609
    25689567
    25693535
    25697493
    25701455
    25705420
    25709393
    25713364
    25717341
    25721289
    25725227
    25729170
    25733112
    25737051
    25740998
    25744937
    25748879
    25752823
    25756764
    25760712
    25764642
    25768557
    25772489
    25776405
    25780309
    25784212
    25788122
    25792028
    25795925
    25799829
    25803732
    25807640
    25811543
    25815450
    25819368
    25823289
    25827198
    25831108
    25835018
    25838941
    25842849
    25846762
    25850697
    25854635
    25858565
    25862488
    25866411
    25870327
    25874264
    25878194
    25882121
    25886046
    25889965
    25893884
    25897811
    25901754
    25905726
    25909712
    25913697
    25917672
    25921647
    25925637
    25929626
    25933609
    25937601
    25941592
    25945578
    25949566
    25953554
    25957550
    25961533
    25965528
    25969524
    25973515
    25977507
    25981496
    25985498
    25989481
    25993470
    25997453
    26001440
    26005408
    26009374
    26013352
    26017326
    26021288
    26025255
    26029222
    26033189
    26037164
    26041141
    26045111
    26049084
    26053067
    26057063
    26061054
    26065034
    26069033
    26073013
    26076994
    26080961
    26084928
    26088894
    26092851
    26096814
    26100782
    26104743
    26108709
    26112670
    26116618
    26120581
    26124537
    26128494
    26132451
    26136422
    26140394
    26144365
    26148332
    26152297
    26156268
    26160235
    26164201
    26168181
    26172151
    26176122
    26180108
    26184085
    26188068
    26192058
    26196049
    26200035
    26204031
    26208025
    26212019
    26216002
    26220007
    26224027
    26228048
    26232047
    26236032
    26239997
    26243963
    26247939
    26251927
    26255909
    26259892
    26263872
    26267845
    26271801
    26275755
    26279716
    26283685
    26287653
    26291631
    26295601
    26299566
    26303538
    26307502
    26311467
    26315425
    26319388
    26323353
    26327325
    26331297
    26335270
    26339231
    26343189
    26347159
    26351124
    26355088
    26359050
    26363008
    26366972
    26370939
    26374906
    26378872
    26382839
    26386816
    26390784
    26394745
    26398711
    26402674
    26406640
    26410594
    26414559
    26418542
    26422541
    26426540
    26430546
    26434546
    26438552
    26442565
    26446576
    26450603
    26454620
    26458634
    26462637
    26466636
    26470637
    26474647
    26478641
    26482641
    26486646
    26490655
    26494654
    26498639
    26502623
    26506601
    26510580
    26514553
    26518523
    26522494
    26526463
    26530429
    26534399
    26538373
    26542351
    26546330
    26550305
    26554270
    26558229
    26562201
    26566180
    26570163
    26574144
    26578133
    26582109
    26586088
    26590053
    26594012
    26597953
    26601871
    26605795
    26609720
    26613625
    26617527
    26621428
    26625332
    26629220
    26633118
    26637022
    26640927
    26644829
    26648719
    26652603
    26656492
    26660378
    26664248
    26668125
    26671999
    26675868
    26679731
    26683578
    26687430
    26691289
    26695164
    26699034
    26702914
    26706798
    26710671
    26714548
    26718416
    26722276
    26726148
    26730014
    26733888
    26737784
    26741664
    26745547
    26749428
    26753318
    26757211
    26761088
    26764955
    26768835
    26772714
    26776604
    26780486
    26784380
    26788276
    26792176
    26796078
    26799984
    26803897
    26807816
    26811742
    26815671
    26819602
    26823520
    26827438
    26831344
    26835245
    26839120
    26842991
    26846858
    26850698
    26854527
    26858338
    26862155
    26865967
    26869777
    26873596
    26877418
    26881229
    26885050
    26888874
    26892716
    26896535
    26900337
    26904133
    26907932
    26911722
    26915524
    26919330
    26923147
    26926968
    26930784
    26934604
    26938424
    26942268
    26946128
    26949996
    26953860
    26957725
    26961601
    26965490
    26969383
    26973272
    26977171
    26981071
    26984972
    26988880
    26992771
    26996643
    27000528
    27004415
    27008301
    27012198
    27016127
    27020067
    27024005
    27027956
    27031913
    27035870
    27039843
    27043819
    27047799
    27051781
    27055761
    27059739
    27063725
    27067713
    27071701
    27075689
    27079671
    27083663
    27087652
    27091646
    27095635
    27099628
    27103629
    27107619
    27111604
    27115590
    27119585
    27123585
    27127589
    27131581
    27135578
    27139576
    27143588
    27147592
    27151607
    27155633
    27159652
    27163675
    27167685
    27171719
    27175748
    27179760
    27183773
    27187782
    27191802
    27195810
    27199807
    27203783
    27207776
    27211764
    27215752
    27219733
    27223705
    27227680
    27231662
    27235637
    27239613
    27243587
    27247565
    27251541
    27255510
    27259463
    27263415
    27267369
    27271325
    27275270
    27279212
    27283150
    27287085
    27291031
    27294965
    27298907
    27302845
    27306787
    27310722
    27314664
    27318601
    27322544
    27326483
    27330412
    27334352
    27338307
    27342265
    27346215
    27350166
    27354121
    27358110
    27362110
    27366112
    27370126
    27374139
    27378104
    27382068
    27386040
    27390009
    27393969
    27397920
    27401871
    27405823
    27409783
    27413762
    27417737
    27421720
    27425698
    27429675
    27433649
    27437608
    27441562
    27445525
    27449498
    27453469
    27457429
    27461384
    27465341
    27469302
    27473261
    27477217
    27481172
    27485138
    27489101
    27493065
    27497023
    27500992
    27504966
    27508948
    27512935
    27516926
    27520906
    27524879
    27528856
    27532843
    27536832
    27540817
    27544787
    27548763
    27552746
    27556726
    27560709
    27564682
    27568651
    27572634
    27576618
    27580601
    27584585
    27588576
    27592559
    27596550
    27600528
    27604517
    27608519
    27612525
    27616534
    27620538
    27624542
    27628551
    27632559
    27636569
    27640582
    27644585
    27648604
    27652621
    27656637
    27660651
    27664662
    27668667
    27672673
    27676679
    27680679
    27684684
    27688707
    27692721
    27696743
    27700754
    27704754
    27708745
    27712746
    27716773
    27720806
    27724836
    27728867
    27732902
    27736938
    27740976
    27745015
    27749060
    27753102
    27757141
    27761161
    27765170
    27769174
    27773179
    27777185
    27781185
    27785180
    27789185
    27793190
    27797195
    27801200
    27805203
    27809191
    27813176
    27817166
    27821115
    27825086
    27829073
    27833057
    27837038
    27841020
    27845003
    27848985
    27852967
    27856943
    27860921
    27864892
    27868863
    27872843
    27876830
    27880817
    27884794
    27888766
    27892738
    27896727
    27900719
    27904720
    27908711
    27912694
    27916688
    27920673
    27924665
    27928656
    27932644
    27936632
    27940614
    27944603
    27948591
    27952581
    27956563
    27960555
    27964555
    27968547
    27972542
    27976537
    27980528
    27984522
    27988522
    27992516
    27996511
    28000502
    28004501
    28008497
    28012482
    28016467
    28020448
    28024403
    28028363
    28032312
    28036240
    28040167
    28044099
    28048045
    28052000
    28055952
    28059890
    28063845
    28067815
    28071785
    28075741
    28079703
    28083655
    28087597
    28091542
    28095486
    28099437
    28103396
    28107347
    28111310
    28115262
    28119212
    28123173
    28127131
    28131091
    28135047
    28139004
    28142969
    28146934
    28150891
    28154861
    28158840
    28162810
    28166791
    28170767
    28174741
    28178713
    28182685
    28186661
    28190638
    28194618
    28198603
    28202585
    28206561
    28210555
    28214543
    28218527
    28222506
    28226491
    28230472
    28234458
    28238442
    28242423
    28246420
    28250413
    28254410
    28258409
    28262403
    28266399
    28270405
    28274398
    28278394
    28282381
    28286363
    28290364
    28294359
    28298353
    28302344
    28306317
    28310278
    28314243
    28318195
    28322132
    28326078
    28330041
    28333996
    28337956
    28341917
    28345896
    28349876
    28353843
    28357815
    28361791
    28365775
    28369756
    28373735
    28377710
    28381675
    28385652
    28389619
    28393598
    28397573
    28401541
    28405528
    28409511
    28413488
    28417459
    28421430
    28425415
    28429397
    28433388
    28437381
    28441377
    28445370
    28449343
    28453315
    28457292
    28461284
    28465278
    28469282
    28473291
    28477300
    28481308
    28485320
    28489335
    28493353
    28497367
    28501371
    28505367
    28509370
    28513371
    28517378
    28521391
    28525403
    28529414
    28533444
    28537466
    28541490
    28545515
    28549538
    28553571
    28557606
    28561638
    28565663
    28569702
    28573734
    28577757
    28581776
    28585772
    28589749
    28593716
    28597675
    28601598
    28605487
    28609345
    28613188
    28617019
    28620841
    28624634
    28628419
    28632195
    28635966
    28639731
    28643486
    28647238
    28650978
    28654716
    28658469
    28662208
    28665947
    28669695
    28673452
    28677218
    28680984
    28684759
    28688526
    28692310
    28696106
    28699915
    28703730
    28707560
    28711409
    28715262
    28719125
    28722987
    28726866
    28730730
    28734595
    28738449
    28742305
    28746175
    28750061
    28753953
    28757864
    28761802
    28765741
    28769712
    28773716
    28777736
    28781768
    28785795
    28789827
    28793867
    28797902
    28801924
    28805949
    28809968
    28813994
    28818005
    28822001
    28825997
    28829960
    28833942
    28837920
    28841892
    28845864
    28849845
    28853811
    28857790
    28861764
    28865738
    28869709
    28873680
    28877635
    28881590
    28885560
    28889525
    28893494
    28897470
    28901450
    28905432
    28909408
    28913389
    28917375
    28921354
    28925360
    28929372
    28933394
    28937419
    28941469
    28945513
    28949559
    28953594
    28957623
    28961654
    28965692
    28969726
    28973760
    28977802
    28981836
    28985864
    28989892
    28993921
    28997956
    29001988
    29006026
    29010063
    29014091
    29018135
    29022163
    29026195
    29030231
    29034267
    29038305
    29042357
    29046410
    29050458
    29054514
    29058584
    29062640
    29066695
    29070750
    29074808
    29078871
    29082924
    29086983
    29091027
    29095067
    29099105
    29103153
    29107185
    29111213
    29115250
    29119288
    29123333
    29127385
    29131430
    29135472
    29139509
    29143550
    29147582
    29151612
    29155647
    29159678
    29163693
    29167723
    29171748
    29175764
    29179793
    29183807
    29187826
    29191835
    29195839
    29199837
    29203832
    29207837
    29211851
    29215868
    29219875
    29223878
    29227888
    29231894
    29235906
    29239915
    29243931
    29247942
    29251950
    29255977
    29260007
    29264040
    29268067
    29272104
    29276144
    29280171
    29284209
    29288251
    29292284
    29296308
    29300357
    29304394
    29308426
    29312459
    29316490
    29320516
    29324553
    29328583
    29332611
    29336644
    29340659
    29344680
    29348703
    29352731
    29356748
    29360764
    29364785
    29368799
    29372822
    29376844
    29380876
    29384904
    29388927
    29392943
    29396940
    29400931
    29404908
    29408897
    29412868
    29416805
    29420714
    29424619
    29428530
    29432430
    29436318
    29440130
    29443920
    29447700
    29451493
    29455287
    29459092
    29462890
    29466683
    29470483
    29474298
    29478122
    29481966
    29485819
    29489693
    29493577
    29497427
    29501256
    29505084
    29508908
    29512731
    29516568
    29520405
    29524259
    29528118
    29531974
    29535814
    29539681
    29543543
    29547396
    29551266
    29555144
    29559015
    29562886
    29566764
    29570645
    29574527
    29578410
    29582318
    29586224
    29590132
    29594037
    29597956
    29601883
    29605807
    29609741
    29613669
    29617601
    29621544
    29625500
    29629471
    29633452
    29637419
    29641397
    29645391
    29649427
    29653493
    29657571
    29661655
    29665743
    29669826
    29673923
    29678011
    29682098
    29686183
    29690257
    29694324
    29698384
    29702388
    29706365
    29710346
    29714337
    29718342
    29722353
    29726378
    29730399
    29734431
    29738450
    29742482
    29746516
    29750550
    29754586
    29758613
    29762648
    29766678
    29770693
    29774710
    29778733
    29782736
    29786712
    29790674
    29794644
    29798582
    29802505
    29806415
    29810311
    29814206
    29818099
    29821997
    29825896
    29829783
    29833683
    29837597
    29841528
    29845454
    29849387
    29853336
    29857280
    29861224
    29865181
    29869130
    29873064
    29877015
    29880976
    29884953
    29888918
    29892884
    29896841
    29900813
    29904799
    29908787
    29912753
    29916716
    29920690
    29924666
    29928630
    29932594
    29936556
    29940532
    29944518
    29948489
    29952472
    29956449
    29960428
    29964401
    29968380
    29972366
    29976347
    29980305
    29984277
    29988255
    29992235
    29996229
    30000217
    30004210
    30008206
    30012180
    30016150
    30020140
    30024119
    30028095
    30032082
    30036058
    30040040
    30044012
    30047968
    30051926
    30055894
    30059865
    30063856
    30067828
    30071780
    30075734
    30079691
    30083655
    30087626
    30091594
    30095570
    30099549
    30103521
    30107478
    30111432
    30115388
    30119361
    30123348
    30127336
    30131339
    30135352
    30139364
    30143372
    30147382
    30151397
    30155429
    30159468
    30163531
    30167586
    30171648
    30175706
    30179772
    30183846
    30187942
    30192031
    30196098
    30200157
    30204218
    30208279
    30212344
    30216413
    30220469
    30224524
    30228584
    30232648
    30236709
    30240778
    30244833
    30248875
    30252877
    30256875
    30260898
    30264952
    30269006
    30273031
    30277070
    30281117
    30285161
    30289197
    30293235
    30297272
    30301290
    30305313
    30309347
    30313372
    30317390
    30321422
    30325454
    30329475
    30333503
    30337556
    30341612
    30345669
    30349716
    30353746
    30357769
    30361773
    30365802
    30369829
    30373863
    30377895
    30381908
    30385932
    30389926
    30393912
    30397882
    30401844
    30405809
    30409764
    30413728
    30417697
    30421686
    30425673
    30429691
    30433742
    30437811
    30441867
    30445924
    30449994
    30454073
    30458168
    30462263
    30466348
    30470436
    30474521
    30478599
    30482671
    30486737
    30490769
    30494802
    30498844
    30502899
    30506960
    30511023
    30515072
    30519112
    30523157
    30527193
    30531220
    30535248
    30539276
    30543317
    30547362
    30551413
    30555473
    30559541
    30563606
    30567668
    30571742
    30575815
    30579869
    30583934
    30588000
    30592072
    30596147
    30600222
    30604303
    30608379
    30612460
    30616531
    30620612
    30624686
    30628763
    30632838
    30636916
    30640993
    30645051
    30649098
    30653092
    30657112
    30661131
    30665178
    30669247
    30673323
    30677378
    30681396
    30685391
    30689344
    30693276
    30697194
    30701084
    30704969
    30708853
    30712734
    30716616
    30720527
    30724452
    30728388
    30732342
    30736308
    30740267
    30744234
    30748208
    30752198
    30756195
    30760212
    30764223
    30768249
    30772265
    30776278
    30780301
    30784348
    30788375
    30792398
    30796414
    30800417
    30804421
    30808439
    30812490
    30816515
    30820542
    30824566
    30828608
    30832656
    30836697
    30840735
    30844790
    30848827
    30852895
    30856961
    30861004
    30865012
    30869022
    30873050
    30877098
    30881143
    30885188
    30889261
    30893329
    30897412
    30901495
    30905573
    30909658
    30913749
    30917834
    30921892
    30925928
    30929943
    30933938
    30937910
    30941892
    30945891
    30949897
    30953899
    30957924
    30961948
    30965983
    30970020
    30974064
    30978093
    30982136
    30986189
    30990217
    30994256
    30998278
    31002315
    31006332
    31010357
    31014382
    31018393
    31022400
    31026396
    31030392
    31034383
    31038368
    31042342
    31046331
    31050319
    31054315
    31058305
    31062289
    31066287
    31070284
    31074274
    31078277
    31082271
    31086254
    31090252
    31094242
    31098224
    31102204
    31106187
    31110149
    31114106
    31118061
    31122023
    31126013
    31130006
    31133991
    31137984
    31141985
    31145981
    31149984
    31153987
    31157992
    31162006
    31166025
    31170047
    31174066
    31178087
    31182104
    31186118
    31190132
    31194132
    31198130
    31202108
    31206092
    31210085
    31214092
    31218104
    31222124
    31226142
    31230157
    31234189
    31238197
    31242198
    31246200
    31250211
    31254232
    31258247
    31262271
    31266302
    31270335
    31274370
    31278413
    31282459
    31286506
    31290554
    31294601
    31298639
    31302688
    31306733
    31310780
    31314818
    31318856
    31322890
    31326918
    31330928
    31334914
    31338908
    31342921
    31346930
    31350950
    31354983
    31359014
    31363038
    31367072
    31371116
    31375174
    31379224
    31383263
    31387309
    31391361
    31395413
    31399465
    31403517
    31407568
    31411618
    31415674
    31419718
    31423761
    31427802
    31431844
    31435890
    31439911
    31443910
    31447901
    31451881
    31455854
    31459810
    31463761
    31467728
    31471721
    31475723
    31479732
    31483736
    31487754
    31491770
    31495791
    31499793
    31503799
    31507810
    31511832
    31515856
    31519894
    31523928
    31527954
    31532003
    31536045
    31540092
    31544163
    31548237
    31552304
    31556346
    31560401
    31564471
    31568553
    31572621
    31576666
    31580716
    31584758
    31588791
    31592820
    31596861
    31600920
    31604969
    31609011
    31613056
    31617102
    31621150
    31625184
    31629209
    31633241
    31637262
    31641272
    31645287
    31649303
    31653318
    31657326
    31661333
    31665345
    31669377
    31673405
    31677431
    31681437
    31685446
    31689450
    31693462
    31697496
    31701539
    31705594
    31709649
    31713709
    31717781
    31721845
    31725910
    31729979
    31734041
    31738099
    31742133
    31746156
    31750174
    31754184
    31758164
    31762163
    31766176
    31770193
    31774173
    31778144
    31782096
    31786051
    31790012
    31793951
    31797872
    31801811
    31805764
    31809728
    31813656
    31817574
    31821496
    31825446
    31829412
    31833388
    31837376
    31841386
    31845391
    31849421
    31853461
    31857516
    31861541
    31865532
    31869528
    31873530
    31877552
    31881574
    31885580
    31889574
    31893532
    31897517
    31901505
    31905509
    31909526
    31913548
    31917552
    31921556
    31925574
    31929585
    31933580
    31937549
    31941508
    31945473
    31949457
    31953454
    31957454
    31961468
    31965491
    31969537
    31973584
    31977638
    31981696
    31985749
    31989804
    31993861
    31997922
    32001967
    32006010
    32010062
    32014110
    32018160
    32022206
    32026251
    32030293
    32034334
    32038374
    32042419
    32046475
    32050535
    32054593
    32058645
    32062684
    32066725
    32070758
    32074802
    32078842
    32082835
    32086835
    32090840
    32094854
    32098871
    32102887
    32106918
    32110964
    32115024
    32119076
    32123128
    32127174
    32131210
    32135258
    32139302
    32143345
    32147367
    32151350
    32155316
    32159274
    32163260
    32167209
    32171177
    32175154
    32179161
    32183155
    32187135
    32191128
    32195132
    32199150
    32203158
    32207164
    32211177
    32215195
    32219243
    32223316
    32227373
    32231432
    32235484
    32239522
    32243529
    32247518
    32251506
    32255494
    32259471
    32263449
    32267423
    32271391
    32275371
    32279351
    32283329
    32287309
    32291305
    32295284
    32299264
    32303250
    32307241
    32311233
    32315231
    32319234
    32323232
    32327226
    32331231
    32335225
    32339230
    32343247
    32347249
    32351249
    32355259
    32359271
    32363285
    32367306
    32371347
    32375400
    32379450
    32383486
    32387520
    32391570
    32395602
    32399648
    32403704
    32407780
    32411855
    32415938
    32420026
    32424135
    32428241
    32432311
    32436344
    32440366
    32444368
    32448365
    32452371
    32456367
    32460382
    32464381
    32468364
    32472357
    32476358
    32480361
    32484373
    32488396
    32492416
    32496447
    32500482
    32504511
    32508534
    32512548
    32516554
    32520569
    32524585
    32528598
    32532619
    32536640
    32540660
    32544681
    32548701
    32552714
    32556731
    32560746
    32564756
    32568760
    32572759
    32576766
    32580795
    32584835
    32588882
    32592922
    32596976
    32601020
    32605061
    32609093
    32613137
    32617192
    32621230
    32625252
    32629279
    32633296
    32637326
    32641354
    32645380
    32649402
    32653435
    32657471
    32661498
    32665529
    32669582
    32673640
    32677696
    32681723
    32685730
    32689735
    32693725
    32697728
    32701722
    32705721
    32709711
    32713696
    32717700
    32721718
    32725740
    32729757
    32733773
    32737808
    32741852
    32745885
    32749921
    32753950
    32757970
    32762000
    32766022
    32770060
    32774100
    32778131
    32782148
    32786164
    32790179
    32794195
    32798191
    32802187
    32806179
    32810183
    32814200
    32818220
    32822237
    32826250
    32830260
    32834271
    32838276
    32842236
    32846181
    32850109
    32854034
    32857953
    32861866
    32865766
    32869669
    32873584
    32877515
    32881449
    32885386
    32889332
    32893260
    32897196
    32901132
    32905071
    32909018
    32912961
    32916898
    32920817
    32924733
    32928642
    32932561
    32936482
    32940423
    32944377
    32948326
    32952281
    32956247
    32960223
    32964195
    32968171
    32972159
    32976153
    32980153
    32984162
    32988174
    32992204
    32996233
    33000271
    33004305
    33008353
    33012415
    33016473
    33020520
    33024555
    33028544
    33032517
    33036521
    33040529
    33044525
    33048531
    33052542
    33056573
    33060595
    33064612
    33068628
    33072645
    33076661
    33080680
    33084685
    33088696
    33092702
    33096708
    33100709
    33104719
    33108749
    33112773
    33116788
    33120792
    33124791
    33128776
    33132768
    33136773
    33140774
    33144786
    33148810
    33152826
    33156858
    33160887
    33164912
    33168934
    33172958
    33176980
    33181014
    33185030
    33189043
    33193050
    33197064
    33201084
    33205104
    33209127
    33213147
    33217174
    33221205
    33225223
    33229232
    33233242
    33237252
    33241261
    33245271
    33249271
    33253263
    33257248
    33261232
    33265225
    33269228
    33273226
    33277223
    33281218
    33285224
    33289220
    33293209
    33297208
    33301206
    33305200
    33309195
    33313192
    33317182
    33321166
    33325149
    33329142
    33333142
    33337124
    33341109
    33345101
    33349088
    33353077
    33357054
    33361040
    33365020
    33369009
    33372992
    33376983
    33380986
    33385003
    33389014
    33393019
    33397028
    33401031
    33405044
    33409055
    33413049
    33417053
    33421046
    33425042
    33429028
    33433006
    33436987
    33440961
    33444954
    33448957
    33452980
    33457005
    33461022
    33465046
    33469099
    33473144
    33477186
    33481244
    33485296
    33489336
    33493335
    33497312
    33501311
    33505315
    33509330
    33513354
    33517389
    33521416
    33525449
    33529492
    33533537
    33537587
    33541634
    33545636
    33549636
    33553622
    33557609
    33561617
    33565652
    33569697
    33573743
    33577796
    33581832
    33585843
    33589841
    33593847
    33597859
    33601878
    33605905
    33609927
    33613957
    33617984
    33622006
    33626024
    33630039
    33634069
    33638081
    33642115
    33646133
    33650151
    33654141
    33658132
    33662107
    33666071
    33670038
    33674007
    33677987
    33681970
    33685939
    33689902
    33693869
    33697836
    33701818
    33705792
    33709768
    33713746
    33717710
    33721681
    33725667
    33729648
    33733620
    33737594
    33741572
    33745553
    33749539
    33753526
    33757521
    33761500
    33765488
    33769468
    33773444
    33777440
    33781447
    33785454
    33789455
    33793460
    33797455
    33801447
    33805438
    33809397
    33813361
    33817328
    33821295
    33825245
    33829197
    33833148
    33837116
    33841088
    33845057
    33849010
    33852960
    33856918
    33860875
    33864833
    33868805
    33872770
    33876732
    33880706
    33884683
    33888670
    33892665
    33896669
    33900673
    33904672
    33908670
    33912640
    33916601
    33920565
    33924530
    33928493
    33932465
    33936436
    33940403
    33944381
    33948368
    33952351
    33956342
    33960340
    33964356
    33968393
    33972423
    33976450
    33980477
    33984518
    33988543
    33992524
    33996495
    34000463
    34004430
    34008411
    34012414
    34016424
    34020450
    34024473
    34028509
    34032541
    34036587
    34040625
    34044637
    34048632
    34052592
    34056538
    34060478
    34064447
    34068427
    34072409
    34076395
    34080374
    34084341
    34088287
    34092242
    34096201
    34100177
    34104171
    34108179
    34112186
    34116198
    34120205
    34124222
    34128238
    34132257
    34136277
    34140301
    34144317
    34148342
    34152375
    34156401
    34160425
    34164437
    34168429
    34172419
    34176389
    34180347
    34184317
    34188300
    34192270
    34196235
    34200212
    34204183
    34208159
    34212124
    34216106
    34220072
    34224053
    34228035
    34232007
    34235969
    34239916
    34243874
    34247831
    34251786
    34255736
    34259709
    34263690
    34267692
    34271691
    34275688
    34279690
    34283697
    34287713
    34291721
    34295731
    34299734
    34303743
    34307764
    34311783
    34315805
    34319825
    34323833
    34327846
    34331880
    34335916
    34339945
    34343969
    34347996
    34352033
    34356064
    34360107
    34364153
    34368203
    34372260
    34376307
    34380359
    34384408
    34388457
    34392494
    34396533
    34400571
    34404613
    34408669
    34412721
    34416773
    34420834
    34424877
    34428929
    34432970
    34436972
    34440935
    34444924
    34448923
    34452933
    34456959
    34460984
    34465016
    34469041
    34473058
    34477076
    34481088
    34485091
    34489119
    34493146
    34497172
    34501204
    34505259
    34509317
    34513368
    34517409
    34521435
    34525422
    34529409
    34533400
    34537375
    34541347
    34545302
    34549232
    34553140
    34557051
    34560966
    34564888
    34568823
    34572757
    34576697
    34580613
    34584539
    34588476
    34592398
    34596323
    34600257
    34604198
    34608140
    34612068
    34615879
    34619697
    34623561
    34627432
    34631271
    34635126
    34638976
    34642836
    34646689
    34650590
    34654464
    34658348
    34662245
    34666170
    34670071
    34673937
    34677820
    34681703
    34685549
    34689391
    34693220
    34697046
    34700891
    34704763
    34708651
    34712549
    34716441
    34720336
    34724233
    34728119
    34732004
    34735920
    34739858
    34743823
    34747791
    34751738
    34755670
    34759593
    34763521
    34767435
    34771322
    34775187
    34779055
    34782881
    34786719
    34790601
    34794491
    34798387
    34802265
    34806159
    34810027
    34813897
    34817793
    34821696
    34825591
    34829459
    34833322
    34837234
    34841150
    34845029
    34848896
    34852767
    34856657
    34860581
    34864515
    34868449
    34872396
    34876257
    34880120
    34883952
    34887794
    34891604
    34895406
    34899213
    34903001
    34906799
    34910601
    34914402
    34918197
    34922002
    34925774
    34929540
    34933296
    34937037
    34940822
    34944579
    34948359
    34952082
    34955884
    34959681
    34963454
    34967237
    34971054
    34974890
    34978721
    34982534
    34986372
    34990209
    34994037
    34997922
    35001839
    35005736
    35009651
    35013550
    35017496
    35021439
    35025378
    35029298
    35033224
    35037123
    35041033
    35044967
    35048911
    35052807
    35056682
    35060589
    35064508
    35068444
    35072375
    35076310
    35080273
    35084272
    35088301
    35092335
    35096361
    35100401
    35104433
    35108443
    35112415
    35116380
    35120370
    35124382
    35128401
    35132409
    35136387
    35140382
    35144385
    35148411
    35152424
    35156444
    35160461
    35164480
    35168496
    35172508
    35176497
    35180487
    35184470
    35188430
    35192386
    35196325
    35200279
    35204237
    35208181
    35212132
    35216101
    35220052
    35223979
    35227903
    35231812
    35235721
    35239638
    35243563
    35247496
    35251433
    35255374
    35259314
    35263255
    35267195
    35271138
    35275088
    35279047
    35283009
    35286982
    35290953
    35294933
    35298924
    35302927
    35306926
    35310895
    35314792
    35318695
    35322583
    35326488
    35330424
    35334358
    35338295
    35342259
    35346236
    35350224
    35354228
    35358248
    35362276
    35366311
    35370355
    35374407
    35378429
    35382459
    35386490
    35390514
    35394459
    35398408
    35402361
    35406340
    35410332
    35414306
    35418257
    35422189
    35426160
    35430149
    35434123
    35438122
    35442122
    35446111
    35450109
    35454100
    35458078
    35462062
    35466069
    35470088
    35474124
    35478129
    35482105
    35486057
    35490025
    35494001
    35497987
    35501934
    35505855
    35509795
    35513746
    35517707
    35521677
    35525647
    35529600
    35533516
    35537439
    35541357
    35545283
    35549236
    35553190
    35557167
    35561163
    35565165
    35569164
    35573137
    35577122
    35581122
    35585163
    35589202
    35593257
    35597313
    35601302
    35605240
    35609182
    35613140
    35617125
    35621124
    35625127
    35629116
    35633121
    35637144
    35641186
    35645235
    35649273
    35653325
    35657386
    35661449
    35665494
    35669539
    35673591
    35677656
    35681717
    35685781
    35689830
    35693841
    35697839
    35701843
    35705853
    35709855
    35713875
    35717891
    35721901
    35725931
    35729959
    35733968
    35737969
    35741947
    35745921
    35749910
    35753918
    35757938
    35761883
    35765840
    35769810
    35773813
    35777800
    35781788
    35785788
    35789785
    35793797
    35797805
    35801801
    35805791
    35809795
    35813806
    35817813
    35821830
    35825823
    35829823
    35833822
    35837826
    35841830
    35845833
    35849855
    35853872
    35857890
    35861912
    35865922
    35869925
    35873942
    35877973
    35882000
    35886034
    35890069
    35894100
    35898133
    35902178
    35906209
    35910259
    35914302
    35918331
    35922372
    35926421
    35930456
    35934500
    35938546
    35942576
    35946597
    35950640
    35954679
    35958707
    35962746
    35966754
    35970754
    35974746
    35978725
    35982707
    35986693
    35990672
    35994660
    35998647
    36002625
    36006615
    36010607
    36014602
    36018607
    36022580
    36026544
    36030515
    36034497
    36038483
    36042476
    36046469
    36050453
    36054452
    36058455
    36062451
    36066453
    36070462
    36074464
    36078455
    36082461
    36086454
    36090426
    36094389
    36098318
    36102238
    36106174
    36110114
    36114071
    36118027
    36122003
    36125988
    36129991
    36133984
    36137991
    36141993
    36145999
    36150016
    36154024
    36158051
    36162090
    36166132
    36170180
    36174224
    36178273
    36182315
    36186357
    36190398
    36194429
    36198456
    36202495
    36206546
    36210590
    36214636
    36218683
    36222738
    36226777
    36230823
    36234865
    36238897
    36242935
    36246983
    36251031
    36255070
    36259108
    36263145
    36267180
    36271198
    36275223
    36279240
    36283271
    36287302
    36291340
    36295398
    36299441
    36303476
    36307510
    36311541
    36315579
    36319612
    36323656
    36327698
    36331737
    36335782
    36339818
    36343845
    36347882
    36351915
    36355952
    36359979
    36364001
    36368011
    36372028
    36376057
    36380081
    36384101
    36388124
    36392150
    36396177
    36400205
    36404222
    36408224
    36412212
    36416184
    36420152
    36424142
    36428155
    36432170
    36436193
    36440210
    36444215
    36448235
    36452255
    36456265
    36460278
    36464304
    36468323
    36472343
    36476358
    36480384
    36484407
    36488434
    36492439
    36496454
    36500486
    36504517
    36508549
    36512569
    36516581
    36520581
    36524594
    36528615
    36532637
    36536666
    36540668
    36544666
    36548661
    36552658
    36556656
    36560651
    36564651
    36568665
    36572681
    36576692
    36580694
    36584708
    36588712
    36592714
    36596734
    36600756
    36604788
    36608818
    36612857
    36616893
    36620932
    36624969
    36629013
    36633047
    36637082
    36641121
    36645173
    36649233
    36653293
    36657348
    36661414
    36665475
    36669539
    36673597
    36677674
    36681752
    36685810
    36689863
    36693922
    36697957
    36701987
    36706026
    36710057
    36714060
    36718075
    36722116
    36726167
    36730212
    36734252
    36738277
    36742306
    36746357
    36750406
    36754465
    36758527
    36762590
