         549
        4802
        9048
       13291
       17558
       21793
       26073
       30278
       34491
       38763
       43060
       47309
       51564
       55891
       60206
       64444
       68724
       73003
       77213
       81456
       85696
       89963
       94179
       98401
      102601
      106892
      111167
      115448
      119679
      123928
      128132
      132312
      136538
      140741
      145008
      149228
      153392
      157657
      161858
      166051
      170289
      174552
      178734
      182941
      187203
      191502
      195698
      199908
      204205
      208377
      212543
      216734
      220935
      225112
      229379
      233585
      237777
      241953
      246150
      250366
      254586
      258823
      263060
      267252
      271553
      275823
      280036
      284274
      288464
      292745
      297044
      301404
      305673
      309925
      314159
      318397
      322583
      326825
      331037
      335264
      339533
      343834
      348056
      352309
      356547
      360843
      365088
      369369
      373582
      377794
      382015
      386222
      390411
      394616
      398747
      402969
      407248
      411463
      415698
      419929
      424082
      428346
      432602
      436788
      440970
      445154
      449373
      453523
      457751
      461984
      466131
      470323
      474522
      478736
      482942
      487071
      491283
      495508
      499664
      503865
      508056
      512278
      516491
      520729
      524924
      529133
      533334
      536120
      540634
      544778
      548934
      553086
      557285
      561544
      565764
      569970
      574163
      578393
      582632
      586829
      590997
      595232
      599427
      603624
      607857
      612074
      616319
      620601
      624829
      629039
      633245
      637455
      641661
      645879
      650049
      654248
      658484
      662659
      666855
      671053
      675355
      679617
      683896
      688120
      692400
      696612
      700809
      705084
      709309
      713507
      717680
      721810
      726054
      730249
      734502
      738766
      742956
      747247
      751551
      755821
      760076
      764211
      768388
      772570
      776821
      781085
      785316
      789553
      793817
      797985
      802178
      806340
      810516
      814718
      818894
      823062
      827207
      831355
      835573
      839786
      843960
      848164
      852294
      856444
      860665
      864860
      869091
      873298
      877505
      881746
      886007
      890290
      894606
      898878
      903173
      907459
      911690
      915953
      920187
      924383
      928628
      932860
      937103
      941357
      945615
      949840
      954060
      958355
      962597
      966784
      971024
      975256
      979492
      983731
      987944
      992201
      996361
     1000600
     1004824
     1009043
     1013262
     1017534
     1021789
     1026081
     1030416
     1034680
     1038972
     1043239
     1047547
     1051818
     1056041
     1060286
     1064526
     1068688
     1072835
     1077011
     1081246
     1085407
     1089601
     1093799
     1097965
     1102189
     1106412
     1110587
     1114792
     1118992
     1123186
     1127430
     1131665
     1135935
     1140137
     1144373
     1148629
     1152797
     1157027
     1161241
     1165427
     1169631
     1173809
     1178023
     1182253
     1186450
     1190622
     1194831
     1199050
     1203275
     1207471
     1211720
     1215969
     1220244
     1224481
     1228687
     1232946
     1237242
     1241466
     1245662
     1249875
     1254066
     1258326
     1262565
     1266793
     1270970
     1275111
     1279249
     1283480
     1287676
     1291897
     1296134
     1300365
     1304591
     1308752
     1312898
     1317101
     1321298
     1325452
     1329654
     1333909
     1338100
     1342334
     1346528
     1350790
     1355063
     1359375
     1363619
     1367847
     1372074
     1376305
     1380542
     1384768
     1388950
     1393140
     1397443
     1401682
     1405897
     1410050
     1414185
     1418373
     1422553
     1426757
     1430970
     1435166
     1439400
     1443575
     1447753
     1452013
     1456176
     1460366
     1464574
     1468819
     1473065
     1477214
     1481383
     1485549
     1489816
     1494002
     1498180
     1502367
     1506582
     1510775
     1515018
     1519240
     1523518
     1527835
     1532135
     1536388
     1540695
     1544917
     1549184
     1553334
     1557568
     1561852
     1566085
     1570351
     1574651
     1578902
     1583156
     1587354
     1591570
     1595751
     1599992
     1604173
     1608318
     1612601
     1616858
     1621102
     1625330
     1629579
     1633731
     1637845
     1641949
     1646108
     1650245
     1654418
     1658548
     1662684
     1666847
     1671022
     1675250
     1679482
     1683727
     1687881
     1692064
     1696214
     1700362
     1704521
     1708705
     1712865
     1717097
     1721291
     1725445
     1729555
     1733771
     1738002
     1742234
     1746450
     1750665
     1754890
     1759090
     1763309
     1767545
     1771801
     1776004
     1780184
     1784432
     1788696
     1792913
     1797100
     1801329
     1805563
     1809770
     1813980
     1818250
     1822474
     1826744
     1830928
     1835126
     1839357
     1843642
     1847911
     1852222
     1856487
     1860764
     1864981
     1869154
     1873372
     1877573
     1881750
     1885986
     1890205
     1894391
     1898632
     1902811
     1906998
     1911142
     1915307
     1919523
     1923778
     1927990
     1932162
     1936380
     1940545
     1944613
     1948732
     1952833
     1956984
     1961176
     1965381
     1969618
     1973840
     1978028
     1982292
     1986449
     1990647
     1994832
     1998972
     2003192
     2007423
     2011633
     2015869
     2020127
     2024325
     2028461
     2032629
     2036802
     2041003
     2045197
     2049473
     2053614
     2057848
     2062054
     2066271
     2070472
     2074704
     2078932
     2083146
     2087388
     2091543
     2095770
     2099948
     2104147
     2108320
     2112450
     2116612
     2120785
     2124960
     2129136
     2133330
     2137529
     2141732
     2145878
     2150148
     2154366
     2158591
     2162799
     2167045
     2171261
     2175422
     2179623
     2183805
     2188024
     2192230
     2196497
     2200792
     2205016
     2209250
     2213424
     2217633
     2221891
     2226083
     2230327
     2234544
     2238821
     2243111
     2247320
     2251476
     2255620
     2259824
     2264046
     2268291
     2272489
     2276736
     2280906
     2285098
     2289281
     2293468
     2297670
     2301907
     2306137
     2310433
     2314651
     2318884
     2323188
     2327378
     2331554
     2335736
     2339996
     2344241
     2348484
     2352654
     2356891
     2361124
     2365356
     2369590
     2373834
     2378085
     2382361
     2386600
     2390827
     2395072
     2399356
     2403585
     2407781
     2412017
     2416161
     2420408
     2424638
     2428815
     2433067
     2437301
     2441583
     2445806
     2450017
     2454196
     2458408
     2462679
     2466983
     2471211
     2475406
     2479585
     2483821
     2488084
     2492303
     2496494
     2500707
     2504967
     2509126
     2513276
     2517513
     2521743
     2525920
     2530116
     2534328
     2538615
     2542775
     2546959
     2551161
     2555282
     2559513
     2563734
     2567977
     2572185
     2576361
     2580612
     2584824
     2589058
     2593299
     2597587
     2601876
     2606149
     2610355
     2614591
     2618822
     2622995
     2627301
     2631519
     2635701
     2639943
     2644131
     2648344
     2652545
     2656698
     2660929
     2665220
     2669451
     2673638
     2677876
     2682075
     2686282
     2690526
     2694693
     2698921
     2703148
     2707332
     2711630
     2715836
     2720033
     2724235
     2728406
     2732659
     2736900
     2741121
     2745387
     2749635
     2753878
     2758160
     2762418
     2766746
     2771004
     2775239
     2779516
     2783772
     2787957
     2792146
     2796338
     2800549
     2804875
     2809105
     2813308
     2817544
     2821767
     2825967
     2830199
     2834454
     2838754
     2842932
     2847094
     2851311
     2855478
     2859622
     2863845
     2868077
     2872267
     2876461
     2880676
     2884918
     2889068
     2893428
     2897736
     2902016
     2906208
     2910415
     2914609
     2918829
     2923058
     2927273
     2931479
     2935728
     2939945
     2944236
     2948461
     2952740
     2956922
     2961126
     2965336
     2969510
     2973746
     2977954
     2982261
     2986515
     2990749
     2995021
     2999289
     3003515
     3007726
     3011939
     3016218
     3020428
     3024720
     3028990
     3033240
     3037461
     3041686
     3045932
     3050268
     3054523
     3058730
     3062980
     3067222
     3071449
     3075700
     3079940
     3084170
     3088355
     3092619
     3096852
     3101122
     3105342
     3109524
     3113790
     3117991
     3122209
     3126419
     3130633
     3134858
     3139079
     3143319
     3147453
     3151634
     3155896
     3160058
     3164334
     3168505
     3172723
     3176937
     3181219
     3185473
     3189792
     3193978
     3198226
     3202465
     3206706
     3210954
     3215122
     3219256
     3223526
     3227743
     3231943
     3236181
     3240367
     3244631
     3248850
     3253149
     3257419
     3261667
     3265934
     3270218
     3274468
     3278672
     3282920
     3287165
     3291420
     3295667
     3299896
     3304163
     3308375
     3312663
     3316888
     3321133
     3325394
     3329617
     3333872
     3338124
     3342344
     3346719
     3350951
     3355167
     3359376
     3363584
     3367784
     3372073
     3376258
     3380521
     3384777
     3389023
     3393270
     3397556
     3401789
     3406030
     3410282
     3414604
     3418862
     3423059
     3427291
     3431573
     3435798
     3440057
     3444304
     3448556
     3452883
     3457142
     3461398
     3465765
     3470090
     3474380
     3478689
     3482879
     3487157
     3491395
     3495585
     3499823
     3504008
     3508244
     3512501
     3516765
     3520945
     3525177
     3529454
     3533725
     3538026
     3542276
     3546572
     3550921
     3555188
     3559520
     3563808
     3568095
     3572410
     3576629
     3580896
     3585164
     3589398
     3593660
     3597868
     3602096
     3606299
     3610561
     3614881
     3619149
     3623445
     3627757
     3631972
     3636280
     3640537
     3644790
     3649044
     3653329
     3657556
     3661785
     3666036
     3670295
     3674435
     3678624
     3682928
     3687149
     3691350
     3695576
     3699768
     3703935
     3708244
     3712551
     3716853
     3721153
     3725427
     3729673
     3733977
     3738331
     3742592
     3746865
     3751224
     3755621
     3759863
     3764074
     3768386
     3772700
     3776969
     3781187
     3785420
     3789677
     3793930
     3798156
     3802355
     3806585
     3810846
     3815126
     3819444
     3823682
     3827902
     3832156
     3836429
     3840716
     3844937
     3849250
     3853541
     3857814
     3862067
     3866319
     3870651
     3874928
     3879186
     3883384
     3887679
     3891941
     3896255
     3900525
     3904727
     3908969
     3913239
     3917492
     3921720
     3926006
     3930247
     3934480
     3938770
     3943002
     3947252
     3951500
     3955741
     3959989
     3964258
     3968464
     3972672
     3976935
     3981221
     3985469
     3989755
     3994021
     3998352
     4002672
     4007053
     4011371
     4015697
     4019988
     4024243
     4028611
     4032881
     4037189
     4041503
     4045822
     4050106
     4054385
     4058637
     4062892
     4067210
     4071551
     4075819
     4080048
     4084371
     4088715
     4093063
     4097387
     4101711
     4105965
     4110227
     4114511
     4118837
     4123166
     4127482
     4131773
     4136013
     4140320
     4144592
     4148904
     4153171
     4157449
     4161693
     4165918
     4170146
     4174382
     4178703
     4183035
     4187288
     4191579
     4195926
     4200236
     4204540
     4208824
     4213093
     4217381
     4221700
     4226085
     4230520
     4234854
     4239142
     4243413
     4247720
     4252071
     4256381
     4260731
     4265012
     4269287
     4273538
     4277818
     4282056
     4286288
     4290528
     4294808
     4299036
     4303304
     4307541
     4311798
     4316090
     4320323
     4324596
     4328830
     4333101
     4337394
     4341637
     4345918
     4350211
     4354504
     4358795
     4363043
     4367263
     4371594
     4375816
     4380070
     4384255
     4388465
     4392775
     4397006
     4401255
     4405524
     4409767
     4414014
     4418284
     4422487
     4426770
     4430992
     4435176
     4439403
     4443666
     4447930
     4452178
     4456425
     4460679
     4464938
     4469211
     4473454
     4477756
     4482018
     4486238
     4490502
     4494723
     4499030
     4503208
     4507445
     4511671
     4515900
     4520129
     4524351
     4528520
     4532806
     4537052
     4541263
     4545539
     4549810
     4554165
     4558344
     4562580
     4566753
     4570947
     4575239
     4579519
     4583789
     4587999
     4592194
     4596484
     4600741
     4604978
     4609247
     4613537
     4617866
     4622130
     4626490
     4630808
     4635086
     4639387
     4643679
     4647967
     4652247
     4656508
     4660798
     4665056
     4669303
     4673570
     4677874
     4682113
     4686377
     4690697
     4694972
     4699270
     4703536
     4707763
     4712050
     4716311
     4720554
     4724830
     4729088
     4733346
     4737586
     4741835
     4746171
     4750379
     4754606
     4758880
     4763146
     4767455
     4771769
     4775983
     4780289
     4784572
     4788822
     4793000
     4797304
     4801599
     4805920
     4810219
     4814530
     4818757
     4822985
     4827245
     4831549
     4835874
     4840191
     4844523
     4848854
     4853193
     4857474
     4861753
     4866048
     4870318
     4874638
     4878865
     4883116
     4887372
     4891570
     4895760
     4899986
     4904235
     4908493
     4912693
     4916942
     4921231
     4925502
     4929789
     4934107
     4938356
     4942606
     4946831
     4951044
     4955190
     4959439
     4963755
     4967996
     4972254
     4976503
     4980809
     4985051
     4989292
     4993539
     4997876
     5002158
     5006442
     5010658
     5014877
     5019109
     5023370
     5027594
     5031898
     5036134
     5040358
     5044599
     5048755
     5052936
     5057118
     5061231
     5065381
     5069570
     5073852
     5078055
     5082310
     5086539
     5090819
     5095069
     5099277
     5103586
     5107813
     5112100
     5116304
     5120577
     5124805
     5129097
     5133359
     5137561
     5141826
     5146154
     5150395
     5154618
     5158844
     5163064
     5167341
     5171573
     5175821
     5180009
     5184226
     5188485
     5192842
     5197173
     5201464
     5205765
     5209965
     5214232
     5218509
     5222745
     5227008
     5231398
     5235751
     5240102
     5244401
     5248707
     5252990
     5257247
     5261496
     5265780
     5269994
     5274265
     5278567
     5282797
     5287050
     5291271
     5295539
     5299803
     5304031
     5308321
     5312590
     5316773
     5320975
     5325239
     5329583
     5333919
     5338226
     5342482
     5346750
     5351116
     5355363
     5359617
     5363918
     5368213
     5372531
     5376829
     5381141
     5385410
     5389774
     5394057
     5398335
     5402594
     5406919
     5411287
     5415599
     5419934
     5424205
     5428574
     5432912
     5437174
     5441416
     5445697
     5450010
     5454298
     5458577
     5462904
     5467267
     5471551
     5475903
     5480135
     5484289
     5488543
     5492806
     5497138
     5501383
     5505669
     5509938
     5514219
     5518535
     5522816
     5527121
     5531336
     5535576
     5539820
     5544126
     5548418
     5552737
     5557125
     5561513
     5565863
     5570224
     5574525
     5578785
     5583011
     5587274
     5591575
     5595819
     5600146
     5604542
     5608786
     5613017
     5617300
     5621546
     5625866
     5630196
     5634542
     5638830
     5643155
     5647436
     5651781
     5656055
     5660363
     5664757
     5669079
     5673389
     5677739
     5682079
     5686365
     5690656
     5695035
     5699485
     5703837
     5708228
     5712567
     5716772
     5720976
     5725298
     5729653
     5734035
     5738296
     5742582
     5746917
     5751168
     5755475
     5759830
     5764139
     5768466
     5772736
     5777077
     5781388
     5785679
     5789944
     5794213
     5798470
     5802723
     5807012
     5811287
     5815544
     5819848
     5824161
     5828459
     5832734
     5836977
     5841216
     5845438
     5849679
     5853934
     5858173
     5862390
     5866645
     5870893
     5875123
     5879345
     5883643
     5887945
     5892169
     5896498
     5900730
     5904988
     5909238
     5913508
     5917769
     5922040
     5926339
     5930707
     5935054
     5939360
     5943671
     5947954
     5952273
     5956552
     5960862
     5965159
     5969410
     5973745
     5978046
     5982357
     5986584
     5990898
     5995158
     5999472
     6003751
     6008088
     6012409
     6016686
     6020981
     6025360
     6029673
     6034004
     6038308
     6042657
     6046914
     6051196
     6055445
     6059797
     6064109
     6068460
     6072836
     6077153
     6081495
     6085775
     6089945
     6094162
     6098466
     6102764
     6107113
     6111417
     6115679
     6119993
     6124239
     6128506
     6132705
     6136900
     6141133
     6145406
     6149704
     6154004
     6158425
     6162826
     6167252
     6171653
     6176048
     6180457
     6184829
     6189149
     6193467
     6197769
     6202058
     6206339
     6210661
     6214960
     6219275
     6223524
     6227808
     6232079
     6236361
     6240710
     6245081
     6249361
     6253605
     6257863
     6262154
     6266471
     6270735
     6275038
     6279310
     6283626
     6287965
     6292229
     6296543
     6300790
     6305086
     6309387
     6313769
     6318117
     6322459
     6326745
     6331022
     6335246
     6339532
     6343872
     6348163
     6352445
     6356694
     6360998
     6365317
     6369587
     6373821
     6378090
     6382365
     6386701
     6391061
     6395391
     6399712
     6404021
     6408310
     6412670
     6417029
     6421313
     6425628
     6429948
     6434328
     6438700
     6442967
     6447333
     6451634
     6455888
     6460229
     6464601
     6468920
     6473251
     6477556
     6481879
     6486228
     6490514
     6494849
     6499104
     6503409
     6507715
     6512052
     6516348
     6520641
     6524934
     6529171
     6533466
     6537876
     6542300
     6546682
     6550989
     6555338
     6559644
     6563987
     6568276
     6572573
     6576895
     6581205
     6585499
     6589774
     6594076
     6598430
     6602751
     6607070
     6611295
     6615541
     6619824
     6624243
     6628645
     6632954
     6637329
     6641689
     6646021
     6650382
     6654815
     6659235
     6663620
     6667945
     6672328
     6676721
     6681032
     6685279
     6689581
     6693847
     6698078
     6702415
     6706710
     6710989
     6715264
     6719529
     6723832
     6728115
     6732388
     6736578
     6740826
     6745119
     6749389
     6753596
     6757808
     6762057
     6766314
     6770604
     6774865
     6779181
     6783544
     6787853
     6792240
     6796544
     6800822
     6805135
     6809435
     6813764
     6818091
     6822371
     6826589
     6830859
     6835154
     6839385
     6843636
     6847965
     6852236
     6856476
     6860685
     6864949
     6869211
     6873419
     6877712
     6881987
     6886267
     6890627
     6894936
     6899304
     6903720
     6908091
     6912485
     6916867
     6921263
     6925627
     6929980
     6934352
     6938715
     6943123
     6947508
     6951826
     6956190
     6960534
     6964880
     6969200
     6973545
     6977924
     6982332
     6986668
     6990980
     6995289
     6999540
     7003868
     7008194
     7012546
     7016758
     7021013
     7025302
     7029605
     7034013
     7038370
     7042750
     7047072
     7051320
     7055679
     7060027
     7064382
     7068730
     7073083
     7077350
     7081571
     7085902
     7090245
     7094546
     7098889
     7103239
     7107597
     7111878
     7116193
     7120484
     7124776
     7128990
     7133285
     7137560
     7141833
     7146147
     7150400
     7154631
     7158911
     7163171
     7167458
     7171713
     7175968
     7180256
     7184591
     7188797
     7192987
     7197224
     7201456
     7205693
     7209959
     7214199
     7218469
     7222805
     7227110
     7231321
     7235676
     7239934
     7244193
     7248471
     7252693
     7256906
     7261140
     7265438
     7269725
     7273956
     7278180
     7282488
     7286778
     7291049
     7295335
     7299626
     7303872
     7308130
     7312447
     7316728
     7321065
     7325391
     7329682
     7333996
     7338324
     7342640
     7346999
     7351288
     7355604
     7359939
     7364311
     7368612
     7372940
     7377272
     7381515
     7385802
     7390128
     7394453
     7398708
     7402971
     7407277
     7411522
     7415812
     7420116
     7424416
     7428763
     7433079
     7437400
     7441757
     7446106
     7450346
     7454625
     7458928
     7463163
     7467428
     7471730
     7476045
     7480336
     7484620
     7489005
     7493328
     7497574
     7501813
     7506141
     7510500
     7514878
     7519245
     7523589
     7527863
     7532173
     7536436
     7540708
     7544927
     7549141
     7553434
     7557685
     7561901
     7566111
     7570297
     7574607
     7579021
     7583325
     7587681
     7592046
     7596411
     7600709
     7605089
     7609371
     7613623
     7617895
     7622153
     7626367
     7630728
     7635105
     7639408
     7643783
     7648124
     7652472
     7656821
     7661083
     7665384
     7669622
     7673831
     7678077
     7682378
     7686680
     7690993
     7695227
     7699466
     7703752
     7707960
     7712240
     7716488
     7720785
     7725082
     7729383
     7733715
     7738045
     7742428
     7746891
     7751307
     7755732
     7760064
     7764393
     7768730
     7773015
     7777318
     7781583
     7785909
     7790231
     7794547
     7798867
     7803228
     7807547
     7811877
     7816181
     7820432
     7824783
     7829102
     7833451
     7837840
     7842270
     7846608
     7851015
     7855365
     7859739
     7864149
     7868524
     7872855
     7877162
     7881451
     7885772
     7890068
     7894297
     7898602
     7902932
     7907241
     7911442
     7915694
     7919937
     7924202
     7928459
     7932754
     7937076
     7941340
     7945638
     7949855
     7954117
     7958401
     7962779
     7967184
     7971586
     7975963
     7980288
     7984608
     7988959
     7993379
     7997769
     8002109
     8006461
     8010729
     8014921
     8019141
     8023404
     8027645
     8031808
     8036064
     8040358
     8044611
     8048831
     8053079
     8057430
     8061764
     8066164
     8070550
     8074946
     8079259
     8083571
     8087884
     8092242
     8096531
     8100875
     8105151
     8109482
     8113745
     8118070
     8122393
     8126800
     8131117
     8135408
     8139696
     8143968
     8148266
     8152594
     8156893
     8161144
     8165420
     8169765
     8174028
     8178315
     8182592
     8186841
     8191072
     8195253
     8199370
     8203588
     8207766
     8211998
     8216216
     8220438
     8224657
     8228866
     8233036
     8237236
     8241406
     8245659
     8249954
     8254250
     8258525
     8262726
     8266960
     8271203
     8275416
     8279650
     8283967
     8288281
     8292670
     8297040
     8301380
     8305681
     8309970
     8314311
     8318667
     8322948
     8327271
     8331589
     8335922
     8340219
     8344529
     8348838
     8353127
     8357623
     8362034
     8366299
     8370590
     8374856
     8379136
     8383387
     8387708
     8392137
     8396556
     8400916
     8405304
     8409642
     8413930
     8418186
     8422503
     8426837
     8431105
     8435412
     8439718
     8443995
     8448304
     8452649
     8457033
     8461398
     8465717
     8470051
     8474371
     8478707
     8483046
     8487414
     8491774
     8496091
     8500419
     8504763
     8509100
     8513512
     8517743
     8522054
     8526319
     8530581
     8534790
     8539006
     8543268
     8547643
     8551924
     8556224
     8560478
     8564743
     8569034
     8573275
     8577584
     8581831
     8586110
     8590362
     8594693
     8599026
     8603337
     8607635
     8611885
     8616201
     8620465
     8624737
     8629045
     8633360
     8637632
     8641952
     8646245
     8650544
     8654856
     8659109
     8663421
     8667741
     8672064
     8676333
     8680633
     8684924
     8689227
     8693574
     8697852
     8702201
     8706447
     8710776
     8715186
     8719511
     8723815
     8728104
     8732494
     8736788
     8741143
     8745538
     8749928
     8754225
     8758601
     8762946
     8767276
     8771630
     8775982
     8780322
     8784514
     8788854
     8793236
     8797654
     8802073
     8806425
     8810786
     8815152
     8819449
     8823886
     8828243
     8832626
     8836956
     8841323
     8845549
     8849843
     8854110
     8858336
     8862595
     8866906
     8871225
     8875492
     8879803
     8884105
     8888338
     8892661
     8896990
     8901354
     8905686
     8910035
     8914348
     8918688
     8923063
     8927398
     8931717
     8936043
     8940335
     8944604
     8948894
     8953258
     8957585
     8961861
     8966161
     8970450
     8974741
     8978977
     8983278
     8987608
     8991788
     8995989
     9000215
     9004427
     9008741
     9012975
     9017199
     9021492
     9025766
     9030044
     9034358
     9038726
     9042994
     9047329
     9051672
     9055882
     9060109
     9064409
     9068663
     9072995
     9077342
     9081640
     9085943
     9090205
     9094524
     9098791
     9103122
     9107365
     9111639
     9116032
     9120401
     9124786
     9129127
     9133463
     9137831
     9142178
     9146467
     9150705
     9154960
     9159284
     9163599
     9167949
     9172310
     9176635
     9180916
     9185179
     9189477
     9193835
     9198174
     9202440
     9206798
     9211199
     9215499
     9219881
     9224166
     9228482
     9232847
     9237144
     9241463
     9245756
     9249991
     9254210
     9258458
     9262715
     9266986
     9271278
     9275604
     9279874
     9284195
     9288523
     9292809
     9297167
     9301558
     9305821
     9310097
     9314385
     9318701
     9323025
     9327305
     9331618
     9335847
     9340104
     9344393
     9348587
     9352843
     9357073
     9361410
     9365756
     9370049
     9374347
     9378623
     9382929
     9387230
     9391604
     9395853
     9400059
     9404327
     9408629
     9412903
     9417205
     9421518
     9425783
     9430103
     9434466
     9438814
     9443074
     9447291
     9451563
     9455851
     9460111
     9464441
     9468798
     9473169
     9477531
     9481879
     9486262
     9490606
     9494932
     9499305
     9503605
     9507882
     9512195
     9516519
     9520828
     9525093
     9529394
     9533701
     9538078
     9542499
     9546810
     9551016
     9555213
     9559472
     9563677
     9567847
     9572086
     9576341
     9580682
     9585021
     9589345
     9593732
     9598113
     9602475
     9606788
     9611071
     9615347
     9619636
     9623906
     9628256
     9632603
     9636903
     9641176
     9645390
     9649696
     9653987
     9658276
     9662571
     9666889
     9671209
     9675529
     9679824
     9684154
     9688510
     9692850
     9697242
     9701599
     9705882
     9710219
     9714492
     9718876
     9723244
     9727534
     9731883
     9736180
     9740526
     9744851
     9749117
     9753358
     9757606
     9762002
     9766313
     9770636
     9774878
     9779156
     9783391
     9787627
     9791893
     9796188
     9800455
     9804848
     9809234
     9813583
     9817925
     9822231
     9826508
     9830889
     9835188
     9839473
     9843837
     9848103
     9852431
     9856657
     9860874
     9865108
     9869337
     9873637
     9877895
     9882191
     9886567
     9890977
     9895309
     9899628
     9904006
     9908429
     9912742
     9917043
     9921313
     9925645
     9929992
     9934372
     9938719
     9943072
     9947419
     9951802
     9956171
     9960543
     9964852
     9969211
     9973572
     9977798
     9982056
     9986357
     9990699
     9995028
     9999387
    10003750
    10008085
    10012459
    10016765
    10021140
    10025464
    10029857
    10034317
    10038721
    10043141
    10047557
    10051919
    10056236
    10060612
    10064973
    10069364
    10073690
    10077975
    10082211
    10086506
    10090842
    10095169
    10099438
    10103753
    10108124
    10112494
    10116955
    10121408
    10125790
    10130108
    10134479
    10138819
    10143161
    10147545
    10151936
    10156332
    10160707
    10165156
    10169447
    10173840
    10178260
    10182639
    10187036
    10191423
    10195780
    10200080
    10204464
    10208746
    10213099
    10217418
    10221717
    10226009
    10230275
    10234638
    10238947
    10243239
    10247549
    10251913
    10256204
    10260405
    10264698
    10269045
    10273351
    10277634
    10281946
    10286363
    10290741
    10295098
    10299463
    10303848
    10308140
    10312486
    10316784
    10321002
    10325261
    10329510
    10333776
    10338124
    10342443
    10346769
    10351081
    10355391
    10359756
    10364121
    10368446
    10372715
    10377035
    10381373
    10385696
    10390064
    10394453
    10398779
    10403070
    10407452
    10411803
    10416181
    10420556
    10424836
    10429141
    10433439
    10437797
    10442237
    10446610
    10451087
    10455414
    10459768
    10464182
    10468601
    10472970
    10477250
    10481604
    10485948
    10490328
    10494672
    10499016
    10503520
    10507920
    10512318
    10516674
    10521050
    10525441
    10529781
    10534107
    10538423
    10542754
    10547078
    10551459
    10555824
    10560276
    10564713
    10569041
    10573448
    10577885
    10582228
    10586611
    10590939
    10595232
    10599511
    10603835
    10608166
    10612491
    10616864
    10621266
    10625653
    10630050
    10634485
    10638867
    10643219
    10647507
    10651764
    10656068
    10660411
    10664697
    10669060
    10673468
    10677818
    10682247
    10686682
    10691054
    10695448
    10699811
    10704196
    10708544
    10712865
    10717182
    10721545
    10725914
    10730253
    10734539
    10738844
    10743187
    10747599
    10752043
    10756450
    10760883
    10765290
    10769664
    10774025
    10778421
    10782785
    10787272
    10791686
    10796091
    10800396
    10804771
    10809155
    10813478
    10817887
    10822340
    10826782
    10831196
    10835668
    10840219
    10844643
    10849046
    10853359
    10857769
    10862142
    10866518
    10870906
    10875359
    10879773
    10884207
    10888567
    10892972
    10897360
    10901818
    10906254
    10910607
    10914924
    10919248
    10923664
    10928010
    10932370
    10936683
    10941082
    10945474
    10949915
    10954305
    10958695
    10963029
    10967391
    10971719
    10976070
    10980407
    10984773
    10989183
    10993503
    10997912
    11002301
    11006619
    11010784
    11014875
    11019007
    11023142
    11027312
    11031474
    11035621
    11039850
    11044115
    11048339
    11052624
    11056873
    11061148
    11065352
    11069621
    11073902
    11078181
    11082498
    11086781
    11091112
    11095427
    11099715
    11104049
    11108352
    11112719
    11117087
    11121417
    11125830
    11130213
    11134627
    11138977
    11143334
    11147651
    11151932
    11156359
    11160804
    11165223
    11169530
    11173850
    11178074
    11182451
    11186758
    11191077
    11195463
    11199817
    11204082
    11208433
    11212832
    11217242
    11221647
    11226123
    11230544
    11234926
    11239264
    11243610
    11247914
    11252201
    11256476
    11260749
    11265006
    11269311
    11273647
    11278056
    11282487
    11286890
    11291217
    11295534
    11299909
    11304306
    11308594
    11312882
    11317158
    11321520
    11325886
    11330309
    11334689
    11339060
    11343395
    11347866
    11352252
    11356659
    11361099
    11365550
    11369961
    11374366
    11378776
    11383134
    11387572
    11391943
    11396320
    11400627
    11404983
    11409343
    11413683
    11418041
    11422396
    11426755
    11431130
    11435508
    11439945
    11444350
    11448694
    11453048
    11457499
    11461954
    11466346
    11470732
    11475111
    11479548
    11483978
    11488465
    11492861
    11497273
    11501665
    11506049
    11510483
    11514874
    11519245
    11523649
    11527982
    11532328
    11536689
    11541053
    11545404
    11549812
    11554164
    11558530
    11562818
    11567160
    11571510
    11575847
    11580087
    11584403
    11588688
    11592941
    11597188
    11601404
    11605713
    11610073
    11614334
    11618658
    11622946
    11627206
    11631535
    11635864
    11640218
    11644565
    11648906
    11653295
    11657660
    11662030
    11666347
    11670642
    11674778
    11678805
    11682865
    11686951
    11691084
    11695266
    11699447
    11703656
    11707879
    11712209
    11716474
    11720781
    11725128
    11729480
    11733886
    11738218
    11742498
    11746839
    11751248
    11755569
    11759823
    11764150
    11768481
    11772814
    11777171
    11781491
    11785808
    11790139
    11794475
    11798766
    11803066
    11807368
    11811631
    11815961
    11820240
    11824554
    11828895
    11833245
    11837607
    11841988
    11846414
    11850838
    11855266
    11859625
    11864074
    11868467
    11872855
    11877210
    11881524
    11885846
    11889940
    11894028
    11898166
    11902297
    11906475
    11910649
    11914821
    11919033
    11923285
    11927513
    11931690
    11935957
    11940199
    11944492
    11948750
    11953010
    11957318
    11961649
    11965937
    11970189
    11974503
    11978773
    11983087
    11987361
    11991667
    11996063
    12000486
    12004881
    12009226
    12013540
    12017930
    12022271
    12026646
    12030947
    12035283
    12039740
    12044186
    12048615
    12052982
    12057255
    12061594
    12065901
    12070234
    12074568
    12078980
    12083282
    12087581
    12091853
    12096244
    12100598
    12104985
    12109377
    12113894
    12118369
    12122783
    12127216
    12131668
    12136153
    12140492
    12144815
    12149173
    12153596
    12158061
    12162397
    12166754
    12171076
    12175365
    12179751
    12184048
    12188401
    12192775
    12197141
    12201505
    12205815
    12210153
    12214618
    12219004
    12223373
    12227758
    12232078
    12236429
    12240781
    12245187
    12249587
    12254014
    12258460
    12262774
    12267175
    12271516
    12275835
    12280110
    12284473
    12288863
    12293331
    12297678
    12302089
    12306554
    12310994
    12315432
    12319868
    12324401
    12328833
    12333192
    12337576
    12341998
    12346459
    12350820
    12355150
    12359472
    12363839
    12368252
    12372586
    12376963
    12381234
    12385615
    12389974
    12394353
    12398681
    12402994
    12407324
    12411574
    12415934
    12420271
    12424721
    12429181
    12433643
    12438111
    12442558
    12446927
    12451389
    12455851
    12460221
    12464645
    12469050
    12473475
    12477993
    12482437
    12486853
    12491240
    12495653
    12500021
    12504414
    12508785
    12513138
    12517493
    12521868
    12526265
    12530627
    12534992
    12539294
    12543604
    12547983
    12552374
    12556658
    12560967
    12565298
    12569590
    12573877
    12578190
    12582518
    12586867
    12591187
    12595572
    12599960
    12604393
    12608860
    12613286
    12617636
    12621957
    12626264
    12630576
    12634888
    12639183
    12643497
    12647805
    12652101
    12656399
    12660757
    12665135
    12669436
    12673712
    12678031
    12682342
    12686732
    12691070
    12695399
    12699733
    12704087
    12708386
    12712704
    12716990
    12721352
    12725690
    12730012
    12734424
    12738805
    12743245
    12747662
    12752112
    12756526
    12760927
    12765352
    12769838
    12774258
    12778683
    12783054
    12787496
    12791996
    12796338
    12800736
    12805078
    12809447
    12813677
    12817982
    12822395
    12826727
    12831085
    12835478
    12839962
    12844412
    12848780
    12853171
    12857550
    12861949
    12866335
    12870723
    12875183
    12879551
    12883888
    12888268
    12892681
    12897082
    12901449
    12905738
    12910093
    12914425
    12918752
    12923128
    12927531
    12931984
    12936368
    12940691
    12945010
    12949379
    12953729
    12958078
    12962313
    12966579
    12970887
    12975178
    12979530
    12983806
    12988141
    12992455
    12996781
    13001183
    13005538
    13009778
    13014066
    13018451
    13022845
    13027225
    13031654
    13036017
    13040367
    13044717
    13049032
    13053374
    13057766
    13062151
    13066551
    13070985
    13075332
    13079687
    13084049
    13088434
    13092847
    13097177
    13101574
    13106007
    13110337
    13114683
    13119057
    13123472
    13127859
    13132300
    13136652
    13141028
    13145357
    13149758
    13154095
    13158477
    13162823
    13167164
    13171516
    13175954
    13180349
    13184661
    13189041
    13193360
    13197695
    13202047
    13206409
    13210764
    13215077
    13219360
    13223689
    13227985
    13232285
    13236601
    13240981
    13245240
    13249504
    13253835
    13258232
    13262611
    13266907
    13271266
    13275576
    13279887
    13284206
    13288587
    13292972
    13297328
    13301640
    13306040
    13310421
    13314842
    13319215
    13323482
    13327814
    13332096
    13336420
    13340751
    13345156
    13349530
    13353849
    13358150
    13362449
    13366791
    13371151
    13375458
    13379727
    13384107
    13388425
    13392724
    13397049
    13401340
    13405725
    13410057
    13414475
    13418829
    13423222
    13427695
    13432076
    13436498
    13440876
    13445342
    13449765
    13454110
    13458434
    13462769
    13467108
    13471413
    13475723
    13480021
    13484316
    13488670
    13493017
    13497364
    13501740
    13506135
    13510460
    13514825
    13519220
    13523556
    13527933
    13532403
    13536821
    13541241
    13545624
    13550002
    13554282
    13558573
    13562910
    13567183
    13571506
    13575831
    13580144
    13584509
    13588812
    13593218
    13597568
    13601889
    13606205
    13610584
    13614913
    13619297
    13623722
    13628060
    13632326
    13636634
    13640949
    13645285
    13649596
    13653903
    13658177
    13662547
    13666887
    13671173
    13675488
    13679831
    13684164
    13688498
    13692817
    13697129
    13701468
    13705855
    13710241
    13714601
    13718997
    13723433
    13727861
    13732212
    13736529
    13740917
    13745351
    13749640
    13753955
    13758215
    13762494
    13766761
    13770962
    13775179
    13779403
    13783725
    13788074
    13792488
    13796802
    13801166
    13805603
    13809987
    13814457
    13818799
    13823087
    13827368
    13831685
    13836113
    13840462
    13844793
    13849144
    13853509
    13857810
    13862130
    13866458
    13870790
    13875132
    13879451
    13883740
    13888116
    13892472
    13896725
    13901111
    13905445
    13909798
    13914270
    13918630
    13923051
    13927448
    13931811
    13936178
    13940607
    13944929
    13949361
    13953826
    13958241
    13962518
    13966893
    13971254
    13975643
    13980031
    13984469
    13988805
    13993140
    13997445
    14001813
    14006136
    14010529
    14014909
    14019319
    14023645
    14028084
    14032448
    14036785
    14041135
    14045467
    14049884
    14054319
    14058673
    14063002
    14067351
    14071720
    14076020
    14080325
    14084560
    14088958
    14093355
    14097715
    14102123
    14106526
    14110880
    14115288
    14119687
    14124091
    14128497
    14132833
    14137208
    14141575
    14145958
    14150354
    14154824
    14159246
    14163635
    14168043
    14172387
    14176818
    14181243
    14185664
    14190028
    14194386
    14198810
    14203187
    14207574
    14211884
    14216182
    14220538
    14224879
    14229205
    14233547
    14237907
    14242281
    14246654
    14250949
    14255241
    14259664
    14263974
    14268365
    14272818
    14277138
    14281524
    14285909
    14290199
    14294556
    14298884
    14303192
    14307449
    14311764
    14316064
    14320321
    14324657
    14328960
    14333342
    14337718
    14342071
    14346418
    14350851
    14355221
    14359617
    14364008
    14368374
    14372734
    14377067
    14381381
    14385709
    14390013
    14394341
    14398687
    14403034
    14407395
    14411744
    14416115
    14420561
    14424962
    14429410
    14433810
    14438149
    14442532
    14446986
    14451389
    14455742
    14460067
    14464461
    14468811
    14473218
    14477640
    14482043
    14486434
    14490754
    14495096
    14499426
    14503733
    14508051
    14512443
    14516844
    14521295
    14525690
    14530108
    14534430
    14538702
    14543073
    14547354
    14551693
    14556029
    14560279
    14564546
    14568903
    14573288
    14577650
    14581973
    14586291
    14590701
    14595002
    14599326
    14603650
    14607972
    14612343
    14616702
    14621135
    14625499
    14629851
    14634113
    14638392
    14642743
    14647110
    14651491
    14655849
    14660194
    14664504
    14668819
    14673219
    14677647
    14682117
    14686561
    14690937
    14695338
    14699799
    14704208
    14708611
    14713041
    14717429
    14721841
    14726188
    14730553
    14734860
    14739232
    14743578
    14747965
    14752315
    14756694
    14761125
    14765535
    14769981
    14774444
    14778835
    14783175
    14787490
    14791830
    14796261
    14800702
    14805136
    14809554
    14813852
    14818323
    14822750
    14827180
    14831578
    14835953
    14840305
    14844592
    14848912
    14853252
    14857570
    14861880
    14866151
    14870450
    14874742
    14879109
    14883398
    14887623
    14891876
    14896211
    14900512
    14904776
    14909112
    14913414
    14917750
    14922065
    14926365
    14930692
    14935001
    14939344
    14943784
    14948107
    14952441
    14956786
    14961132
    14965511
    14969904
    14974268
    14978631
    14983069
    14987486
    14991784
    14996066
    15000278
    15004524
    15008840
    15013153
    15017377
    15021642
    15025938
    15030287
    15034677
    15038974
    15043180
    15047436
    15051702
    15056002
    15060326
    15064698
    15069106
    15073417
    15077805
    15082220
    15086665
    15091014
    15095344
    15099707
    15104069
    15108484
    15112742
    15116985
    15121312
    15125615
    15129918
    15134259
    15138691
    15143043
    15147430
    15151784
    15156122
    15160468
    15164777
    15169097
    15173412
    15177823
    15182124
    15186411
    15190744
    15195172
    15199587
    15203946
    15208281
    15212657
    15217046
    15221380
    15225748
    15230128
    15234506
    15238895
    15243212
    15247583
    15251886
    15256157
    15260449
    15264792
    15269119
    15273493
    15277853
    15282178
    15286431
    15290656
    15294957
    15299245
    15303584
    15307883
    15312236
    15316582
    15320989
    15325365
    15329738
    15334149
    15338431
    15342678
    15346936
    15351235
    15355577
    15359854
    15364212
    15368575
    15373044
    15377460
    15381887
    15386294
    15390713
    15395114
    15399434
    15403752
    15408051
    15412400
    15416721
    15421045
    15425435
    15429750
    15434176
    15438596
    15443052
    15447408
    15451856
    15456183
    15460581
    15464980
    15469402
    15473844
    15478181
    15482574
    15486981
    15491360
    15495731
    15500028
    15504341
    15508673
    15513056
    15517376
    15521708
    15526046
    15530342
    15534750
    15539171
    15543616
    15547994
    15552392
    15556825
    15561205
    15565608
    15570005
    15574261
    15578531
    15582815
    15587071
    15591422
    15595785
    15600168
    15604541
    15608811
    15613131
    15617432
    15621694
    15625994
    15630319
    15634653
    15638950
    15643337
    15647688
    15652171
    15656480
    15660931
    15665268
    15669655
    15673997
    15678362
    15682730
    15687050
    15691323
    15695678
    15700048
    15704433
    15708783
    15713175
    15717552
    15721984
    15726396
    15730788
    15735182
    15739522
    15743866
    15748204
    15752481
    15756818
    15761113
    15765427
    15769707
    15773997
    15778298
    15782696
    15787058
    15791283
    15795608
    15799889
    15804178
    15808467
    15812793
    15817177
    15821506
    15825813
    15830175
    15834451
    15838768
    15843223
    15847657
    15852022
    15856367
    15860754
    15865140
    15869526
    15873915
    15878270
    15882564
    15886980
    15891335
    15895707
    15900049
    15904419
    15908746
    15913080
    15917395
    15921786
    15926166
    15930568
    15934957
    15939378
    15943780
    15948127
    15952381
    15956662
    15960931
    15965228
    15969632
    15974068
    15978396
    15982793
    15987190
    15991631
    15995995
    16000363
    16004750
    16009066
    16013435
    16017845
    16022210
    16026612
    16030967
    16035267
    16039592
    16043947
    16048389
    16052812
    16057251
    16061709
    16066071
    16070411
    16074726
    16079070
    16083412
    16087773
    16092227
    16096675
    16101046
    16105384
    16109748
    16114154
    16118507
    16122882
    16127258
    16131675
    16136125
    16140573
    16144974
    16149329
    16153630
    16157986
    16162366
    16166788
    16171171
    16175490
    16179806
    16184305
    16188772
    16193138
    16197510
    16201928
    16206251
    16210618
    16214972
    16219419
    16223863
    16228253
    16232587
    16236997
    16241387
    16245830
    16250245
    16254617
    16259022
    16263422
    16267865
    16272221
    16276488
    16280872
    16285229
    16289648
    16293952
    16298353
    16302673
    16307009
    16311331
    16315705
    16320085
    16324423
    16328842
    16333215
    16337567
    16341950
    16346409
    16350835
    16355360
    16359707
    16363977
    16368294
    16372675
    16377016
    16381285
    16385665
    16390052
    16394486
    16398859
    16403207
    16407602
    16411993
    16416337
    16420743
    16425067
    16429427
    16433691
    16438172
    16442547
    16446866
    16451272
    16455642
    16460060
    16464486
    16468862
    16473262
    16477580
    16481927
    16486264
    16490670
    16495143
    16499614
    16504137
    16508528
    16512936
    16517311
    16521614
    16525897
    16530242
    16534648
    16538966
    16543298
    16547692
    16551966
    16556273
    16560537
    16564810
    16569122
    16573424
    16577813
    16582210
    16586684
    16591171
    16595578
    16599973
    16604353
    16608780
    16613244
    16617736
    16622182
    16626669
    16631139
    16635542
    16639944
    16644260
    16648694
    16653118
    16657503
    16661863
    16666249
    16670635
    16675079
    16679471
    16683898
    16688286
    16692632
    16697038
    16701416
    16705821
    16710266
    16714646
    16719030
    16723391
    16727765
    16732051
    16736356
    16740689
    16744992
    16749314
    16753590
    16757912
    16762234
    16766561
    16770810
    16775226
    16779595
    16783893
    16788271
    16792666
    16797028
    16801423
    16805840
    16810196
    16814622
    16819028
    16823344
    16827694
    16832011
    16836328
    16840657
    16845053
    16849401
    16853754
    16858126
    16862499
    16866983
    16871446
    16875796
    16880243
    16884676
    16889087
    16893401
    16897735
    16902104
    16906497
    16910835
    16915233
    16919578
    16923855
    16928140
    16932490
    16936791
    16941207
    16945664
    16950034
    16954394
    16958768
    16963140
    16967440
    16971783
    16976149
    16980518
    16984908
    16989256
    16993545
    16997883
    17002296
    17006739
    17011167
    17015599
    17019971
    17024418
    17028854
    17033357
    17037873
    17042340
    17046698
    17051036
    17055461
    17059843
    17064218
    17068666
    17073103
    17077470
    17081932
    17086427
    17090853
    17095222
    17099616
    17103951
    17108332
    17112696
    17117063
    17121429
    17125837
    17130178
    17134557
    17138894
    17143225
    17147514
    17151832
    17156072
    17160372
    17164744
    17169107
    17173473
    17177798
    17182152
    17186469
    17190759
    17195042
    17199419
    17203765
    17208137
    17212506
    17216865
    17221224
    17225539
    17229896
    17234186
    17238520
    17242863
    17247213
    17251557
    17255924
    17260369
    17264799
    17269174
    17273467
    17277801
    17282191
    17286483
    17290816
    17295143
    17299521
    17303900
    17308264
    17312712
    17317121
    17321477
    17325848
    17330198
    17334499
    17338779
    17343166
    17347596
    17351927
    17356257
    17360660
    17365060
    17369467
    17373897
    17378267
    17382603
    17386817
    17391036
    17395247
    17399588
    17403834
    17408139
    17412413
    17416736
    17421114
    17425575
    17429991
    17434379
    17438717
    17443170
    17447605
    17451871
    17456248
    17460551
    17464966
    17469264
    17473612
    17477975
    17482261
    17486592
    17490966
    17495374
    17499722
    17504020
    17508433
    17512836
    17517162
    17521584
    17525922
    17530284
    17534666
    17539011
    17543344
    17547694
    17552066
    17556443
    17560881
    17565312
    17569701
    17574058
    17578420
    17582749
    17587111
    17591494
    17595826
    17600175
    17604531
    17608925
    17613183
    17617552
    17621913
    17626281
    17630595
    17634972
    17639291
    17643611
    17648001
    17652396
    17656703
    17660965
    17665313
    17669583
    17673829
    17678063
    17682280
    17686580
    17690869
    17695200
    17699535
    17703857
    17708153
    17712551
    17716886
    17721237
    17725564
    17729891
    17734214
    17738539
    17742879
    17747170
    17751540
    17755974
    17760332
    17764728
    17769033
    17773349
    17777704
    17782077
    17786436
    17790839
    17795265
    17799665
    17803976
    17808394
    17812748
    17817110
    17821510
    17825893
    17830212
    17834530
    17838922
    17843294
    17847693
    17852089
    17856483
    17860901
    17865196
    17869657
    17873928
    17878219
    17882527
    17886922
    17891317
    17895701
    17900114
    17904464
    17908841
    17913187
    17917649
    17922087
    17926477
    17930934
    17935403
    17939810
    17944149
    17948549
    17952955
    17957342
    17961690
    17966047
    17970419
    17974791
    17979088
    17983335
    17987671
    17991997
    17996355
    18000674
    18004984
    18009261
    18013560
    18017843
    18022114
    18026439
    18030787
    18035095
    18039391
    18043737
    18048207
    18052624
    18057004
    18061316
    18065646
    18069996
    18074316
    18078608
    18082963
    18087328
    18091728
    18096111
    18100482
    18104804
    18109205
    18113599
    18117949
    18122310
    18126645
    18131151
    18135547
    18139910
    18144276
    18148625
    18152981
    18157318
    18161605
    18165957
    18170294
    18174672
    18179029
    18183371
    18187738
    18192033
    18196378
    18200732
    18205135
    18209526
    18213881
    18218183
    18222517
    18226869
    18231202
    18235516
    18239876
    18244221
    18248661
    18253160
    18257587
    18262057
    18266489
    18270885
    18275284
    18279668
    18283969
    18288324
    18292733
    18297120
    18301505
    18305815
    18310191
    18314545
    18318970
    18323448
    18327874
    18332356
    18336765
    18341071
    18345407
    18349847
    18354241
    18358602
    18362978
    18367352
    18371712
    18376047
    18380435
    18384835
    18389173
    18393583
    18397960
    18402277
    18406587
    18410852
    18415189
    18419508
    18423899
    18428249
    18432611
    18436880
    18441263
    18445605
    18449906
    18454280
    18458595
    18462992
    18467347
    18471689
    18475992
    18480353
    18484694
    18488966
    18493281
    18497605
    18501989
    18506291
    18510697
    18515094
    18519490
    18523852
    18528258
    18532649
    18537020
    18541374
    18545720
    18550058
    18554473
    18558820
    18563144
    18567466
    18571828
    18576162
    18580461
    18584782
    18589022
    18593377
    18597746
    18602098
    18606537
    18610954
    18615309
    18619636
    18624038
    18628411
    18632742
    18637100
    18641437
    18645758
    18650144
    18654465
    18658802
    18663056
    18667371
    18671780
    18676101
    18680426
    18684794
    18689165
    18693584
    18698068
    18702540
    18707003
    18711431
    18715800
    18720201
    18724551
    18728870
    18733265
    18737626
    18742050
    18746502
    18750940
    18755333
    18759803
    18764230
    18768677
    18773112
    18777615
    18781998
    18786395
    18790758
    18795109
    18799468
    18803830
    18808272
    18812628
    18817006
    18821428
    18825869
    18830393
    18834851
    18839286
    18843698
    18848070
    18852446
    18856857
    18861202
    18865518
    18869853
    18874158
    18878527
    18882853
    18887294
    18891669
    18896055
    18900397
    18904776
    18909188
    18913519
    18917836
    18922166
    18926572
    18930885
    18935246
    18939655
    18944056
    18948485
    18952899
    18957289
    18961678
    18966050
    18970458
    18974864
    18979239
    18983617
    18988001
    18992421
    18996755
    19001094
    19005414
    19009818
    19014181
    19018538
    19022882
    19027345
    19031686
    19036089
    19040562
    19045019
    19049484
    19053925
    19058321
    19062726
    19067083
    19071434
    19075697
    19080068
    19084421
    19088722
    19093126
    19097576
    19102063
    19106406
    19110821
    19115258
    19119660
    19124057
    19128479
    19132909
    19137321
    19141641
    19145996
    19150509
    19154836
    19159184
    19163562
    19168011
    19172373
    19176751
    19181137
    19185538
    19189924
    19194336
    19198672
    19203060
    19207397
    19211772
    19216137
    19220523
    19224837
    19229198
    19233613
    19238025
    19242336
    19246760
    19251175
    19255481
    19259784
    19264189
    19268558
    19272970
    19277322
    19281725
    19286109
    19290467
    19294814
    19299081
    19303430
    19307740
    19312067
    19316465
    19320811
    19325247
    19329564
    19333952
    19338284
    19342701
    19347111
    19351608
    19356012
    19360437
    19364821
    19369104
    19373505
    19377879
    19382235
    19386528
    19390857
    19395227
    19399603
    19403957
    19408290
    19412687
    19417013
    19421401
    19425747
    19430182
    19434542
    19438830
    19443130
    19447469
    19451847
    19456198
    19460563
    19464910
    19469247
    19473645
    19477996
    19482304
    19486682
    19491072
    19495393
    19499744
    19504075
    19508423
    19512816
    19517162
    19521493
    19525659
    19529833
    19534022
    19538216
    19542441
    19546649
    19550873
    19555114
    19559390
    19563605
    19567869
    19572046
    19576258
    19580480
    19584742
    19589086
    19593408
    19597684
    19602030
    19606399
    19610664
    19614984
    19619304
    19623640
    19628000
    19632324
    19636593
    19640935
    19645237
    19649567
    19653899
    19658204
    19662546
    19666880
    19671189
    19675546
    19679972
    19684361
    19688693
    19693046
    19697395
    19701724
    19706108
    19710402
    19714804
    19719068
    19723301
    19727579
    19731921
    19736227
    19740510
    19744839
    19749242
    19753616
    19757908
    19762263
    19766622
    19770976
    19775249
    19779623
    19784030
    19788335
    19792711
    19797072
    19801386
    19805728
    19810025
    19814329
    19818694
    19823050
    19827378
    19831718
    19836073
    19840407
    19844664
    19848985
    19853297
    19857616
    19861973
    19866283
    19870632
    19875046
    19879402
    19883733
    19888053
    19892400
    19896786
    19901223
    19905561
    19909894
    19914180
    19918484
    19922846
    19927153
    19931523
    19935854
    19940271
    19944739
    19949110
    19953533
    19957909
    19962230
    19966483
    19970820
    19975240
    19979683
    19984042
    19988419
    19992770
    19997142
    20001428
    20005788
    20010221
    20014551
    20018894
    20023478
    20027949
    20032390
    20036798
    20041194
    20045541
    20049943
    20054243
    20058595
    20062919
    20067306
    20071688
    20076021
    20080355
    20084714
    20089029
    20093345
    20097652
    20102043
    20106425
    20110828
    20115141
    20119483
    20123869
    20128213
    20132560
    20136983
    20141457
    20145898
    20150252
    20154586
    20158950
    20163352
    20167697
    20171990
    20176294
    20180645
    20185024
    20189427
    20193840
    20198244
    20202607
    20207006
    20211370
    20215701
    20220057
    20224437
    20228948
    20233299
    20237707
    20242110
    20246576
    20250951
    20255375
    20259705
    20264117
    20268575
    20272969
    20277363
    20281690
    20286034
    20290348
    20294700
    20298957
    20303300
    20307695
    20312071
    20316398
    20320840
    20325249
    20329572
    20333915
    20338275
    20342507
    20346929
    20351237
    20355484
    20359809
    20364128
    20368402
    20372681
    20377046
    20381279
    20385592
    20389967
    20394273
    20398513
    20402862
    20407190
    20411560
    20415941
    20420275
    20424620
    20429007
    20433367
    20437620
    20441946
    20446233
    20450516
    20454834
    20459195
    20463528
    20467863
    20472242
    20476509
    20480792
    20485112
    20489457
    20493818
    20498143
    20502441
    20506757
    20511092
    20515409
    20519805
    20524221
    20528562
    20532884
    20537299
    20541663
    20546050
    20550289
    20554487
    20558739
    20562910
    20567108
    20571342
    20575471
    20579739
    20583968
    20588267
    20592575
    20596874
    20601124
    20605417
    20609784
    20614100
    20618412
    20622766
    20627161
    20631433
    20635773
    20640140
    20644458
    20648797
    20653086
    20657380
    20661789
    20666208
    20670648
    20675064
    20679355
    20683758
    20688102
    20692459
    20696816
    20701154
    20705514
    20709868
    20714240
    20718719
    20723192
    20727595
    20731937
    20736283
    20740667
    20745089
    20749509
    20753879
    20758296
    20762707
    20766973
    20771304
    20775639
    20780013
    20784430
    20788758
    20793099
    20797362
    20801691
    20806075
    20810432
    20814737
    20819053
    20823362
    20827734
    20832131
    20836481
    20840832
    20845168
    20849492
    20853871
    20858216
    20862596
    20866960
    20871256
    20875671
    20880071
    20884467
    20888793
    20893122
    20897497
    20901862
    20906184
    20910534
    20914812
    20919115
    20923440
    20927825
    20932244
    20936654
    20941027
    20945503
    20949869
    20954254
    20958663
    20963058
    20967462
    20971797
    20976115
    20980462
    20984811
    20989223
    20993744
    20998165
    21002556
    21006913
    21011291
    21015648
    21019979
    21024313
    21028604
    21032918
    21037301
    21041642
    21045977
    21050275
    21054601
    21058939
    21063377
    21067843
    21072315
    21076618
    21080995
    21085333
    21089633
    21093899
    21098139
    21102458
    21106751
    21111071
    21115443
    21119837
    21124236
    21128606
    21132931
    21137312
    21141687
    21145967
    21150227
    21154528
    21158867
    21163128
    21167424
    21171716
    21176086
    21180324
    21184614
    21188884
    21193203
    21197521
    21201913
    21206257
    21210548
    21214871
    21219315
    21223798
    21228255
    21232621
    21236957
    21241337
    21245638
    21249903
    21254177
    21258519
    21262880
    21267191
    21271587
    21276020
    21280459
    21284873
    21289319
    21293711
    21298153
    21302538
    21306891
    21311329
    21315730
    21320112
    21324477
    21328918
    21333299
    21337694
    21342063
    21346470
    21350801
    21355175
    21359556
    21363927
    21368287
    21372638
    21376929
    21381224
    21385528
    21389957
    21394263
    21398572
    21402771
    21407082
    21411390
    21415718
    21420080
    21424422
    21428780
    21433051
    21437390
    21441743
    21446076
    21450422
    21454812
    21459195
    21463622
    21468059
    21472520
    21477043
    21481519
    21485936
    21490297
    21494658
    21499079
    21503469
    21507865
    21512199
    21516561
    21520934
    21525318
    21529767
    21534169
    21538462
    21542851
    21547162
    21551465
    21555774
    21560102
    21564440
    21568791
    21573167
    21577510
    21581933
    21586200
    21590448
    21594764
    21599021
    21603202
    21607513
    21611813
    21616173
    21620501
    21624823
    21629134
    21633564
    21638033
    21642407
    21646779
    21651161
    21655615
    21660013
    21664452
    21668873
    21673119
    21677387
    21681632
    21685858
    21690119
    21694379
    21698706
    21703000
    21707308
    21711656
    21716085
    21720474
    21724844
    21729296
    21733630
    21738080
    21742503
    21746876
    21751225
    21755569
    21759888
    21764293
    21768656
    21773019
    21777428
    21781943
    21786309
    21790749
    21795174
    21799464
    21803760
    21808113
    21812466
    21816867
    21821260
    21825629
    21830018
    21834406
    21838798
    21843212
    21847580
    21851961
    21856336
    21860649
    21864994
    21869368
    21873717
    21878114
    21882514
    21886938
    21891421
    21895909
    21900304
    21904739
    21909098
    21913481
    21917910
    21922355
    21926838
    21931221
    21935666
    21940049
    21944440
    21948928
    21953302
    21957711
    21962094
    21966499
    21970870
    21975212
    21979592
    21983960
    21988309
    21992625
    21997152
    22001534
    22005893
    22010254
    22014709
    22019125
    22023483
    22027949
    22032396
    22036851
    22041214
    22045595
    22050015
    22054369
    22058704
    22063033
    22067448
    22071830
    22076200
    22080534
    22084961
    22089340
    22093600
    22097881
    22102144
    22106452
    22110777
    22115065
    22119401
    22123724
    22128072
    22132359
    22136716
    22141084
    22145485
    22149914
    22154393
    22158901
    22163331
    22167767
    22172293
    22176727
    22181077
    22185452
    22189870
    22194226
    22198577
    22202955
    22207366
    22211718
    22216133
    22220540
    22224965
    22229411
    22233828
    22238185
    22242552
    22247068
    22251487
    22255899
    22260351
    22264841
    22269301
    22273809
    22278273
    22282724
    22287123
    22291522
    22295976
    22300425
    22304885
    22309355
    22313829
    22318153
    22322594
    22326991
    22331351
    22335754
    22340067
    22344333
    22348707
    22353023
    22357372
    22361803
    22366181
    22370684
    22375056
    22379422
    22383881
    22388291
    22392680
    22397073
    22401422
    22405754
    22410205
    22414560
    22418968
    22423333
    22427705
    22432093
    22436435
    22440735
    22445141
    22449550
    22453863
    22458152
    22462388
    22466689
    22470941
    22475329
    22479641
    22483917
    22488201
    22492508
    22496846
    22501113
    22505345
    22509602
    22513801
    22518028
    22522291
    22526620
    22530889
    22535232
    22539565
    22543907
    22548206
    22552500
    22556801
    22561066
    22565357
    22569659
    22574010
    22578340
    22582641
    22586855
    22591152
    22595367
    22599646
    22603918
    22608255
    22612552
    22616862
    22621246
    22625505
    22629753
    22634037
    22638319
    22642621
    22646962
    22651316
    22655637
    22659970
    22664302
    22668632
    22672891
    22677155
    22681450
    22685769
    22690001
    22694374
    22698676
    22702975
    22707299
    22711641
    22715927
    22720172
    22724473
    22728783
    22733028
    22737214
    22741446
    22745672
    22749907
    22754124
    22758352
    22762591
    22766808
    22771000
    22775162
    22779248
    22783412
    22787610
    22791782
    22795963
    22800106
    22804249
    22808385
    22812488
    22816621
    22820748
    22824909
    22829055
    22833244
    22837384
    22841529
    22845587
    22849728
    22853884
    22857986
    22862093
    22866259
    22870363
    22874490
    22878583
    22882725
    22886845
    22890957
    22895029
    22899114
    22903216
    22907348
    22911408
    22915486
    22919625
    22923791
    22927934
    22932090
    22936203
    22940360
    22944509
    22948644
    22952742
    22956854
    22960969
    22965053
    22969172
    22973321
    22977436
    22981568
    22985707
    22989924
    22994103
    22998268
    23002422
    23006595
    23010775
    23015005
    23019216
    23023449
    23027654
    23031939
    23036200
    23040395
    23044563
    23048799
    23053009
    23057254
    23061424
    23065636
    23069927
    23074203
    23078448
    23082666
    23086849
    23091045
    23095213
    23099390
    23103618
    23107848
    23112102
    23116354
    23120589
    23124838
    23129031
    23133231
    23137500
    23141758
    23145960
    23150145
    23154412
    23158622
    23162890
    23167091
    23171316
    23175483
    23179636
    23183894
    23188074
    23192240
    23196383
    23200587
    23204791
    23209000
    23213235
    23217435
    23221662
    23225958
    23230193
    23234410
    23238658
    23242852
    23247145
    23251364
    23255619
    23259864
    23264055
    23268309
    23272567
    23276783
    23280958
    23285197
    23289444
    23293644
    23297917
    23302208
    23306534
    23310801
    23315108
    23319368
    23323593
    23327798
    23332118
    23336414
    23340710
    23344964
    23349298
    23353601
    23357890
    23362201
    23366545
    23370883
    23375216
    23379579
    23383909
    23388089
    23392377
    23396628
    23400942
    23405219
    23409477
    23413795
    23418064
    23422314
    23426558
    23430779
    23435094
    23439342
    23443572
    23447838
    23452196
    23456500
    23460827
    23465137
    23469481
    23473855
    23478235
    23482612
    23487025
    23491397
    23495721
    23500122
    23504439
    23508783
    23513176
    23517584
    23521944
    23526357
    23530822
    23535215
    23539465
    23543843
    23548268
    23552669
    23557031
    23561427
    23565792
    23570181
    23574503
    23578772
    23583106
    23587457
    23591916
    23596320
    23600723
    23605175
    23609688
    23614047
    23618428
    23622692
    23627029
    23631417
    23635861
    23640213
    23644688
    23649114
    23653520
    23658000
    23662351
    23666781
    23671193
    23675571
    23679974
    23684377
    23688767
    23693157
    23697564
    23701982
    23706414
    23710840
    23715216
    23719572
    23723944
    23728292
    23732637
    23736952
    23741373
    23745840
    23750283
    23754722
    23759095
    23763472
    23767815
    23772229
    23776672
    23781042
    23785472
    23790074
    23794585
    23799012
    23803576
    23807995
    23812463
    23816887
    23821295
    23825744
    23830180
    23834588
    23838944
    23843273
    23847685
    23852105
    23856549
    23860946
    23865278
    23869743
    23874265
    23878777
    23883228
    23887639
    23892016
    23896400
    23900873
    23905292
    23909591
    23913963
    23918364
    23922775
    23927166
    23931532
    23935981
    23940407
    23944924
    23949423
    23953888
    23958335
    23962784
    23967208
    23971530
    23975918
    23980293
    23984709
    23989110
    23993550
    23997915
    24002375
    24006836
    24011208
    24015669
    24020099
    24024500
    24029006
    24033432
    24037831
    24042296
    24046767
    24051248
    24055722
    24060084
    24064452
    24068862
    24073268
    24077750
    24082154
    24086552
    24090983
    24095328
    24099727
    24104186
    24108610
    24113199
    24117664
    24122107
    24126510
    24130902
    24135399
    24139823
    24144234
    24148651
    24153174
    24157663
    24162108
    24166573
    24171007
    24175466
    24179914
    24184457
    24188907
    24193313
    24197718
    24202191
    24206576
    24211026
    24215528
    24220038
    24224389
    24228686
    24232976
    24237250
    24241560
    24245922
    24250269
    24254644
    24259075
    24263447
    24267923
    24272328
    24276845
    24281354
    24285670
    24290026
    24294474
    24298874
    24303325
    24307739
    24312112
    24316506
    24320888
    24325444
    24329931
    24334393
    24338820
    24343289
    24347757
    24352165
    24356620
    24361004
    24365430
    24369864
    24374370
    24378839
    24383298
    24387714
    24392140
    24396532
    24400969
    24405488
    24410010
    24414410
    24418774
    24423178
    24427654
    24432167
    24436648
    24441126
    24445615
    24450175
    24454589
    24459022
    24463453
    24467904
    24472378
    24476834
    24481337
    24485848
    24490295
    24494810
    24499242
    24503726
    24508181
    24512659
    24517096
    24521452
    24525819
    24530161
    24534526
    24538885
    24543230
    24547656
    24552062
    24556363
    24560681
    24565065
    24569466
    24573929
    24578331
    24582729
    24586997
    24591373
    24595754
    24600176
    24604601
    24608956
    24613450
    24617937
    24622465
    24626922
    24631360
    24635835
    24640320
    24644820
    24649256
    24653712
    24658209
    24662650
    24667078
    24671510
    24675921
    24680429
    24685021
    24689691
    24694249
    24698787
    24703423
    24707964
    24712531
    24717031
    24721637
    24726102
    24730681
    24735186
    24739647
    24744115
    24748564
    24753027
    24757522
    24762010
    24766544
    24771071
    24775591
    24780090
    24784631
    24789164
    24793681
    24798183
    24802778
    24807413
    24812006
    24816576
    24821128
    24825645
    24830158
    24834656
    24839191
    24843721
    24848238
    24852732
    24857152
    24861704
    24866318
    24870934
    24875511
    24880083
    24884715
    24889202
    24893675
    24898183
    24902613
    24907101
    24911545
    24916153
    24920673
    24925269
    24929698
    24934087
    24938448
    24942802
    24947102
    24951431
    24955771
    24960164
    24964612
    24969065
    24973546
    24977908
    24982247
    24986670
    24991075
    24995529
    24999978
    25004472
    25008951
    25013473
    25017950
    25022393
    25026872
    25031323
    25035790
    25040188
    25044660
    25049098
    25053508
    25057896
    25062370
    25066707
    25071103
    25075453
    25079862
    25084333
    25088835
    25093334
    25097745
    25102142
    25106521
    25110930
    25115380
    25119851
    25124288
    25128747
    25133267
    25137707
    25142161
    25146580
    25151011
    25155449
    25159839
    25164344
    25168796
    25173253
    25177793
    25182344
    25186917
    25191361
    25195886
    25200363
    25204942
    25209476
    25214064
    25218660
    25223244
    25227805
    25232376
    25236990
    25241481
    25246064
    25250540
    25254996
    25259554
    25263959
    25268438
    25272955
    25277417
    25281898
    25286375
    25290893
    25295448
    25299967
    25304450
    25308997
    25313495
    25317965
    25322365
    25326762
    25331180
    25335713
    25340191
    25344646
    25349127
    25353561
    25357959
    25362361
    25366807
    25371309
    25375791
    25380235
    25384763
    25389474
    25394015
    25398530
    25403039
    25407490
    25412008
    25416412
    25420861
    25425320
    25429745
    25434240
    25438669
    25443190
    25447565
    25451991
    25456493
    25460947
    25465366
    25469758
    25474154
    25478614
    25483006
    25487405
    25491728
    25496140
    25500486
    25504941
    25509373
    25513865
    25518309
    25522766
    25527209
    25531669
    25536110
    25540566
    25545020
    25549500
    25553866
    25558248
    25562671
    25567120
    25571643
    25576098
    25580566
    25585046
    25589520
    25594053
    25598465
    25603007
    25607554
    25612059
    25616636
    25621237
    25625796
    25630331
    25634811
    25639330
    25643923
    25648449
    25652919
    25657425
    25661936
    25666397
    25670888
    25675348
    25679908
    25684434
    25688958
    25693540
    25698056
    25702513
    25707029
    25711506
    25716007
    25720567
    25725115
    25729706
    25734234
    25738773
    25743295
    25747851
    25752400
    25756851
    25761261
    25765759
    25770308
    25774787
    25779306
    25783715
    25788170
    25792606
    25797172
    25801683
    25806177
    25810626
    25815100
    25819601
    25824137
    25828677
    25833151
    25837697
    25842174
    25846643
    25851175
    25855619
    25860121
    25864561
    25869074
    25873549
    25878029
    25882396
    25886896
    25891387
    25895898
    25900420
    25904914
    25909330
    25913642
    25917972
    25922342
    25926756
    25931156
    25935579
    25940034
    25944404
    25948838
    25953278
    25957737
    25962210
    25966746
    25971306
    25975875
    25980363
    25984886
    25989509
    25994089
    25998683
    26003175
    26007670
    26012237
    26016803
    26021404
    26025931
    26030429
    26034766
    26039147
    26043543
    26047892
    26052348
    26056719
    26061076
    26065413
    26069872
    26074372
    26078779
    26083107
    26087489
    26091873
    26096342
    26100810
    26105196
    26109626
    26114153
    26118584
    26122972
    26127445
    26132027
    26136521
    26141028
    26145584
    26150127
    26154639
    26159279
    26163892
    26168462
    26173095
    26177743
    26182362
    26186954
    26191417
    26195877
    26200359
    26204859
    26209341
    26213808
    26218299
    26222832
    26227400
    26231877
    26236303
    26240767
    26245255
    26249761
    26254319
    26258901
    26263377
    26267930
    26272381
    26276901
    26281487
    26286016
    26290620
    26295200
    26299815
    26304459
    26309085
    26313840
    26318545
    26323230
    26327830
    26332462
    26336963
    26341408
    26345862
    26350341
    26354812
    26359338
    26363809
    26368224
    26372683
    26377146
    26381638
    26386068
    26390592
    26395150
    26399688
    26404255
    26408840
    26413412
    26417987
    26422599
    26427228
    26431767
    26436295
    26440777
    26445302
    26449804
    26454271
    26458689
    26463249
    26467743
    26472305
    26476938
    26481563
    26486182
    26490776
    26495285
    26499814
    26504292
    26508857
    26513348
    26517934
    26522434
    26526947
    26531386
    26535943
    26540510
    26545104
    26549694
    26554254
    26558723
    26563232
    26567830
    26572458
    26576998
    26581523
    26586109
    26590628
    26595164
    26599716
    26604217
    26608790
    26613373
    26617927
    26622299
    26626675
    26631095
    26635457
    26639932
    26644495
    26648936
    26653370
    26657744
    26662198
    26666649
    26671109
    26675640
    26680169
    26684695
    26689163
    26693730
    26698269
    26702904
    26707517
    26712105
    26716747
    26721475
    26726153
    26730833
    26735435
    26739993
    26744609
    26749147
    26753753
    26758311
    26762749
    26767187
    26771627
    26776077
    26780530
    26784890
    26789323
    26793752
    26798237
    26802795
    26807353
    26811854
    26816345
    26820846
    26825442
    26830115
    26834831
    26839451
    26844082
    26848620
    26853170
    26857643
    26862196
    26866811
    26871459
    26876090
    26880685
    26885288
    26889880
    26894450
    26898961
    26903521
    26908133
    26912708
    26917318
    26921836
    26926323
    26930892
    26935389
    26939916
    26944405
    26948958
    26953481
    26958023
    26962505
    26967016
    26971602
    26976088
    26980488
    26985035
    26989476
    26994043
    26998578
    27003228
    27007978
    27012674
    27017397
    27022003
    27026609
    27031210
    27035696
    27040202
    27044750
    27049363
    27053862
    27058349
    27062894
    27067448
    27071998
    27076436
    27080907
    27085460
    27089947
    27094492
    27099053
    27103603
    27108110
    27112725
    27117326
    27121869
    27126366
    27130906
    27135388
    27139884
    27144409
    27148889
    27153447
    27158035
    27162545
    27167086
    27171679
    27176189
    27180720
    27185171
    27189564
    27194107
    27198687
    27203251
    27207646
    27212011
    27216333
    27220640
    27224982
    27229277
    27233743
    27238170
    27242522
    27246962
    27251346
    27255865
    27260276
    27264709
    27269216
    27273712
    27278134
    27282703
    27287250
    27291651
    27296213
    27300909
    27305605
    27310246
    27314759
    27319351
    27323945
    27328523
    27333077
    27337572
    27342142
    27346709
    27351193
    27355665
    27360170
    27364554
    27369040
    27373547
    27377991
    27382475
    27386961
    27391416
    27395919
    27400539
    27405098
    27409613
    27414208
    27418820
    27423458
    27428063
    27432696
    27437256
    27441825
    27446342
    27450892
    27455451
    27460119
    27464813
    27469336
    27473877
    27478482
    27483076
    27487683
    27492186
    27496775
    27501255
    27505833
    27510375
    27514901
    27519420
    27523943
    27528408
    27532947
    27537504
    27541988
    27546536
    27551258
    27555944
    27560501
    27565044
    27569535
    27574120
    27578644
    27583120
    27587630
    27592038
    27596473
    27600935
    27605416
    27609831
    27614283
    27618776
    27623241
    27627704
    27632223
    27636807
    27641321
    27645814
    27650276
    27654720
    27659244
    27663780
    27668365
    27672843
    27677341
    27681811
    27686261
    27690710
    27695187
    27699603
    27703908
    27708346
    27712839
    27717394
    27721932
    27726423
    27730952
    27735494
    27740101
    27744657
    27749244
    27753891
    27758579
    27763093
    27767555
    27772022
    27776446
    27780949
    27785520
    27790009
    27794488
    27798950
    27803417
    27807877
    27812424
    27816983
    27821481
    27825954
    27830508
    27835007
    27839556
    27844156
    27848752
    27853303
    27857840
    27862392
    27866888
    27871522
    27876191
    27880798
    27885371
    27889871
    27894417
    27898926
    27903403
    27907908
    27912339
    27916765
    27921146
    27925596
    27929946
    27934436
    27938886
    27943382
    27947905
    27952329
    27956807
    27961333
    27965867
    27970393
    27974998
    27979560
    27984059
    27988550
    27993083
    27997637
    28002234
    28006854
    28011440
    28016015
    28020647
    28025267
    28029821
    28034385
    28038952
    28043515
    28048102
    28052681
    28057267
    28061807
    28066322
    28070790
    28075287
    28079800
    28084295
    28088859
    28093405
    28098033
    28102675
    28107257
    28111853
    28116432
    28120995
    28125617
    28130315
    28134965
    28139705
    28144346
    28148940
    28153530
    28158058
    28162521
    28167100
    28171684
    28176156
    28180746
    28185342
    28189961
    28194666
    28199390
    28204131
    28208830
    28213517
    28218162
    28222702
    28227317
    28231984
    28236579
    28241206
    28245722
    28250279
    28254841
    28259272
    28263747
    28268261
    28272752
    28277248
    28281787
    28286268
    28290855
    28295214
    28299562
    28303933
    28308287
    28312660
    28317086
    28321514
    28325936
    28330330
    28334871
    28339391
    28343998
    28348560
    28353116
    28357667
    28362136
    28366721
    28371280
    28375847
    28380381
    28384912
    28389484
    28394031
    28398604
    28403209
    28407782
    28412303
    28416848
    28421401
    28425937
    28430410
    28434889
    28439393
    28443976
    28448579
    28453226
    28457921
    28462686
    28467387
    28472033
    28476585
    28481151
    28485727
    28490241
    28494702
    28499223
    28503821
    28508404
    28512923
    28517556
    28522102
    28526631
    28531228
    28535733
    28540234
    28544702
    28549178
    28553652
    28558149
    28562569
    28566966
    28571406
    28575946
    28580353
    28584826
    28589290
    28593775
    28598197
    28602626
    28607145
    28611660
    28616166
    28620709
    28625238
    28629728
    28634276
    28638802
    28643394
    28647917
    28652396
    28656867
    28661321
    28665740
    28670142
    28674610
    28679200
    28683704
    28688184
    28692729
    28697303
    28701863
    28706450
    28711033
    28715633
    28720209
    28724751
    28729361
    28733930
    28738532
    28743085
    28747730
    28752287
    28756768
    28761307
    28765807
    28770336
    28774907
    28779533
    28784119
    28788620
    28793155
    28797748
    28802361
    28806944
    28811487
    28816038
    28820657
    28825271
    28829770
    28834372
    28838972
    28843624
    28848206
    28852816
    28857410
    28862048
    28866669
    28871302
    28875880
    28880578
    28885232
    28889969
    28894595
    28899174
    28903722
    28908285
    28912743
    28917291
    28921769
    28926268
    28930789
    28935276
    28939895
    28944476
    28949059
    28953619
    28958190
    28962761
    28967341
    28971890
    28976456
    28981104
    28985653
    28990186
    28994787
    28999367
    29003927
    29008457
    29013041
    29017592
    29022068
    29026475
    29030924
    29035407
    29039773
    29044151
    29048535
    29052949
    29057471
    29062049
    29066537
    29071063
    29075534
    29080022
    29084498
    29088994
    29093596
    29098091
    29102648
    29107225
    29111822
    29116424
    29120995
    29125603
    29130089
    29134646
    29139187
    29143694
    29148293
    29152995
    29157667
    29162262
    29166816
    29171304
    29175783
    29180332
    29184849
    29189450
    29194164
    29198679
    29203073
    29207532
    29211970
    29216463
    29220935
    29225499
    29230006
    29234514
    29238990
    29243482
    29247893
    29252350
    29256799
    29261312
    29265868
    29270435
    29274995
    29279569
    29284098
    29288622
    29293073
    29297519
    29301953
    29306466
    29310992
    29315452
    29320042
    29324590
    29328920
    29333359
    29337850
    29342327
    29346845
    29351351
    29355914
    29360502
    29364962
    29369427
    29373856
    29378403
    29382936
    29387473
    29391974
    29396562
    29401125
    29405544
    29409990
    29414428
    29418835
    29423358
    29427931
    29432541
    29437097
    29441679
    29446236
    29450797
    29455356
    29459964
    29464641
    29469163
    29473706
    29478296
    29482993
    29487629
    29492329
    29496980
    29501547
    29506105
    29510673
    29515175
    29519776
    29524309
    29528905
    29533493
    29538111
    29542652
    29547171
    29551591
    29556051
    29560512
    29564929
    29569378
    29573916
    29578458
    29583005
    29587503
    29591866
    29596280
    29600695
    29605094
    29609539
    29613994
    29618496
    29622866
    29627316
    29631829
    29636329
    29640836
    29645365
    29649934
    29654553
    29659030
    29663552
    29668074
    29672487
    29676947
    29681482
    29686048
    29690556
    29695100
    29699674
    29704222
    29708729
    29713274
    29717767
    29722326
    29726899
    29731442
    29735871
    29740229
    29744552
    29748861
    29753168
    29757492
    29761894
    29766335
    29770697
    29775075
    29779416
    29783789
    29788184
    29792699
    29797254
    29801741
    29806225
    29810651
    29815105
    29819610
    29824007
    29828462
    29832914
    29837310
    29841817
    29846345
    29850835
    29855264
    29859712
    29864225
    29868706
    29873107
    29877483
    29881915
    29886368
    29890901
    29895404
    29899880
    29904419
    29908919
    29913396
    29917916
    29922361
    29926842
    29931282
    29935726
    29940215
    29944757
    29949326
    29953845
    29958327
    29962817
    29967329
    29971817
    29976280
    29980787
    29985276
    29989841
    29994408
    29999079
    30003752
    30008362
    30013039
    30017625
    30022169
    30026709
    30031284
    30035876
    30040359
    30044988
    30049600
    30054153
    30058738
    30063245
    30067727
    30072249
    30076789
    30081265
    30085769
    30090215
    30094676
    30099085
    30103660
    30108138
    30112670
    30117129
    30121611
    30126067
    30130608
    30135135
    30139554
    30144087
    30148597
    30153115
    30157648
    30162212
    30166714
    30171165
    30175690
    30180102
    30184455
    30188830
    30193164
    30197523
    30201986
    30206493
    30210992
    30215525
    30220076
    30224761
    30229321
    30233753
    30238173
    30242577
    30247085
    30251524
    30255989
    30260460
    30264904
    30269386
    30273806
    30278211
    30282646
    30287064
    30291543
    30295983
    30300458
    30304876
    30309297
    30313692
    30318059
    30322394
    30326851
    30331234
    30335648
    30340102
    30344576
    30349051
    30353539
    30358045
    30362467
    30366993
    30371503
    30375972
    30380346
    30384942
    30389436
    30393955
    30398423
    30402927
    30407482
    30412022
    30416456
    30420896
    30425277
    30429702
    30434155
    30438609
    30443076
    30447572
    30452052
    30456599
    30461102
    30465637
    30470156
    30474627
    30479083
    30483531
    30487997
    30492490
    30496948
    30501367
    30505897
    30510321
    30514888
    30519385
    30523854
    30528345
    30532804
    30537344
    30541777
    30546306
    30550813
    30555350
    30559819
    30564322
    30568884
    30573440
    30577947
    30582374
    30586885
    30591363
    30595876
    30600334
    30604751
    30609138
    30613559
    30617991
    30622513
    30627030
    30631532
    30636063
    30640578
    30644968
    30649504
    30653928
    30658517
    30663155
    30667673
    30672188
    30676754
    30681302
    30685870
    30690445
    30695026
    30699641
    30704151
    30708635
    30713106
    30717574
    30722070
    30726478
    30730917
    30735368
    30739811
    30744205
    30748655
    30753255
    30757857
    30762482
    30767004
    30771620
    30776143
    30780714
    30785309
    30789831
    30794498
    30799080
    30803517
    30808063
    30812657
    30817111
    30821746
    30826363
    30830997
    30835652
    30840356
    30845027
    30849664
    30854297
    30858974
    30863619
    30868252
    30872852
    30877393
    30881929
    30886348
    30890878
    30895320
    30899899
    30904427
    30908993
    30913504
    30918091
    30922695
    30927262
    30931877
    30936467
    30941005
    30945571
    30950184
    30954781
    30959283
    30963818
    30968338
    30972805
    30977327
    30981896
    30986402
    30990818
    30995315
    30999781
    31004363
    31008908
    31013460
    31017968
    31022488
    31027009
    31031539
    31036142
    31040661
    31045159
    31049635
    31054067
    31058507
    31062995
    31067468
    31071933
    31076439
    31080948
    31085508
    31090077
    31094653
    31099310
    31103883
    31108386
    31112916
    31117536
    31122163
    31126761
    31131382
    31135936
    31140498
    31145100
    31149742
    31154289
    31158907
    31163395
    31167980
    31172605
    31177161
    31181750
    31186380
    31190950
    31195521
    31200065
    31204591
    31209015
    31213606
    31218224
    31222823
    31227357
    31231823
    31236325
    31240783
    31245205
    31249719
    31254235
    31258673
    31263207
    31267810
    31272329
    31276792
    31281261
    31285734
    31290297
    31294839
    31299272
    31303749
    31308241
    31312708
    31317180
    31321631
    31326167
    31330701
    31335177
    31339713
    31344260
    31348801
    31353411
    31358076
    31362748
    31367366
    31371955
    31376585
    31381156
    31385652
    31390117
    31394538
    31399020
    31403495
    31407935
    31412467
    31416963
    31421536
    31426044
    31430575
    31435122
    31439679
    31444205
    31448784
    31453293
    31457866
    31462509
    31467152
    31471785
    31476279
    31480819
    31485271
    31489716
    31494285
    31498768
    31503322
    31507930
    31512512
    31517012
    31521620
    31526266
    31530834
    31535368
    31539926
    31544440
    31548885
    31553355
    31557820
    31562292
    31566779
    31571317
    31575838
    31580315
    31584725
    31589145
    31593665
    31598196
    31602696
    31607127
    31611752
    31616338
    31620869
    31625399
    31629942
    31634516
    31639087
    31643581
    31648055
    31652619
    31657198
    31661786
    31666360
    31670965
    31675530
    31680076
    31684665
    31689190
    31693705
    31698251
    31702795
    31707392
    31711876
    31716418
    31720930
    31725450
    31730057
    31734602
    31739198
    31743877
    31748410
    31753034
    31757576
    31762178
    31766700
    31771184
    31775634
    31780151
    31784631
    31789129
    31793623
    31798105
    31802657
    31807155
    31811707
    31816269
    31820866
    31825476
    31830079
    31834696
    31839175
    31843707
    31848228
    31852812
    31857360
    31861921
    31866448
    31871027
    31875590
    31880137
    31884687
    31889270
    31893939
    31898538
    31903183
    31907696
    31912228
    31916742
    31921368
    31925891
    31930399
    31934928
    31939433
    31943847
    31948231
    31952779
    31957325
    31961879
    31966517
    31971158
    31975883
    31980575
    31985277
    31989917
    31994536
    31999142
    32003750
    32008257
    32012858
    32017425
    32021940
    32026402
    32030843
    32035299
    32039746
    32044239
    32048770
    32053306
    32057856
    32062379
    32066911
    32071495
    32076129
    32080763
    32085419
    32090026
    32094678
    32099245
    32103781
    32108313
    32112871
    32117496
    32122139
    32126821
    32131383
    32135986
    32140599
    32145256
    32149953
    32154538
    32159110
    32163747
    32168448
    32173019
    32177653
    32182137
    32186600
    32191047
    32195497
    32199920
    32204242
    32208581
    32212977
    32217330
    32221782
    32226256
    32230678
    32235053
    32239510
    32243997
    32248484
    32253008
    32257557
    32262097
    32266637
    32271215
    32275781
    32280271
    32284658
    32289029
    32293471
    32297888
    32302369
    32306911
    32311358
    32315838
    32320379
    32324991
    32329508
    32333959
    32338441
    32342868
    32347308
    32351876
    32356418
    32361054
    32365606
    32370152
    32374662
    32379203
    32383744
    32388270
    32392756
    32397319
    32401892
    32406437
    32410844
    32415318
    32419869
    32424399
    32428914
    32433475
    32438003
    32442602
    32447120
    32451684
    32456284
    32460838
    32465455
    32470079
    32474636
    32479184
    32483779
    32488344
    32492846
    32497407
    32502014
    32506635
    32511236
    32515770
    32520370
    32524911
    32529438
    32534020
    32538541
    32542944
    32547396
    32551884
    32556395
    32560908
    32565425
    32569982
    32574436
    32578878
    32583334
    32587726
    32592215
    32596626
    32601010
    32605454
    32609798
    32614197
    32618676
    32623130
    32627690
    32632127
    32636685
    32641235
    32645717
    32650184
    32654717
    32659144
    32663666
    32668188
    32672718
    32677138
    32681608
    32686146
    32690632
    32695112
    32699553
    32703935
    32708369
    32712817
    32717322
    32721878
    32726453
    32730873
    32735412
    32739912
    32744445
    32748966
    32753401
    32757937
    32762507
    32767103
    32771672
    32776210
    32780755
    32785293
    32789826
    32794293
    32798717
    32803195
    32807687
    32812119
    32816531
    32821001
    32825641
    32830212
    32834747
    32839253
    32843731
    32848192
    32852578
    32857083
    32861550
    32866016
    32870500
    32874945
    32879559
    32884089
    32888608
    32893151
    32897652
    32902224
    32906738
    32911314
    32915893
    32920460
    32925141
    32929841
    32934401
    32938901
    32943397
    32947862
    32952346
    32956890
    32961366
    32965859
    32970436
    32974981
    32979607
    32984181
    32988755
    32993346
    32997928
    33002502
    33007018
    33011581
    33016124
    33020674
    33025200
    33029750
    33034309
    33038816
    33043347
    33047903
    33052439
    33057042
    33061557
    33066133
    33070623
    33075129
    33079679
    33084188
    33088775
    33093295
    33097791
    33102358
    33106953
    33111498
    33115975
    33120460
    33124942
    33129507
    33133984
    33138504
    33143093
    33147671
    33152185
    33156733
    33161347
    33165772
    33170283
    33174827
    33179380
    33183835
    33188386
    33192881
    33197389
    33201902
    33206416
    33210880
    33215338
    33219859
    33224329
    33228785
    33233232
    33237705
    33242191
    33246825
    33251411
    33255918
    33260465
    33265073
    33269638
    33274118
    33278628
    33283171
    33287697
    33292241
    33296782
    33301332
    33305835
    33310356
    33314868
    33319393
    33323879
    33328337
    33332828
    33337323
    33341832
    33346297
    33350796
    33355261
    33359786
    33364305
    33368900
    33373461
    33377991
    33382499
    33387027
    33391586
    33396169
    33400653
    33405185
    33409685
    33414176
    33418605
    33423029
    33427517
    33432039
    33436610
    33441152
    33445618
    33450186
    33454605
    33459135
    33463610
    33468107
    33472745
    33477332
    33481891
    33486503
    33491086
    33495602
    33500158
    33504751
    33509380
    33513946
    33518434
    33522896
    33527539
    33532114
    33536669
    33541193
    33545738
    33550278
    33554794
    33559272
    33563836
    33568385
    33572837
    33577275
    33581688
    33586137
    33590710
    33595306
    33599854
    33604404
    33608883
    33613396
    33617876
    33622346
    33626831
    33631342
    33635904
    33640413
    33644892
    33649445
    33653935
    33658502
    33663025
    33667582
    33672116
    33676684
    33681240
    33685811
    33690292
    33694883
    33699364
    33703898
    33708495
    33713116
    33717767
    33722289
    33726725
    33731175
    33735705
    33740227
    33744675
    33749108
    33753545
    33758027
    33762567
    33767050
    33771598
    33776100
    33780596
    33785008
    33789572
    33794145
    33798727
    33803133
    33807527
    33811979
    33816424
    33820898
    33825318
    33829798
    33834190
    33838537
    33842913
    33847327
    33851713
    33856126
    33860588
    33864939
    33869357
    33873766
    33878120
    33882472
    33886803
    33891276
    33895747
    33900171
    33904639
    33909211
    33913751
    33918226
    33922764
    33927305
    33931816
    33936282
    33940879
    33945361
    33949880
    33954386
    33958847
    33963364
    33967960
    33972541
    33977090
    33981573
    33986158
    33990623
    33995087
    33999594
    34004082
    34008589
    34013134
    34017722
    34022204
    34026682
    34031239
    34035779
    34040405
    34045110
    34049672
    34054150
    34058615
    34063026
    34067380
    34071868
    34076338
    34080835
    34085313
    34089787
    34094198
    34098615
    34103059
    34107526
    34111959
    34116305
    34120788
    34125274
    34129861
    34134265
    34138740
    34143211
    34147645
    34152124
    34156592
    34161052
    34165462
    34169959
    34174356
    34178737
    34183202
    34187563
    34191904
    34196276
    34200676
    34205039
    34209418
    34213829
    34218201
    34222571
    34227022
    34231373
    34235697
    34240121
    34244584
    34249073
    34253525
    34257999
    34262353
    34266749
    34271187
    34275625
    34280162
    34284659
    34289106
    34293700
    34298171
    34302506
    34306792
    34311094
    34315415
    34319781
    34324082
    34328422
    34332886
    34337278
    34341655
    34346120
    34350583
    34355088
    34359618
    34364114
    34368609
    34373094
    34377582
    34382132
    34386642
    34391188
    34395584
    34400018
    34404445
    34408833
    34413235
    34417751
    34422186
    34426609
    34430928
    34435406
    34439880
    34444466
    34449052
    34453673
    34458286
    34462873
    34467406
    34472025
    34476635
    34481281
    34485801
    34490370
    34494973
    34499553
    34504113
    34508676
    34513243
    34517769
    34522293
    34526820
    34531371
    34535928
    34540366
    34544760
    34549157
    34553601
    34558137
    34562567
    34566963
    34571418
    34575805
    34580242
    34584681
    34589200
    34593639
    34598085
    34602569
    34607047
    34611513
    34616030
    34620557
    34625040
    34629509
    34634035
    34638547
    34642998
    34647436
    34651868
    34656261
    34660757
    34665329
    34669829
    34674322
    34678905
    34683347
    34687869
    34692452
    34696917
    34701391
    34705851
    34710234
    34714620
    34718994
    34723267
    34727537
    34731859
    34736189
    34740519
    34744861
    34749178
    34753446
    34757768
    34762141
    34766536
    34770942
    34775394
    34779897
    34784370
    34788753
    34793125
    34797598
    34802003
    34806447
    34810819
    34815278
    34819710
    34824222
    34828708
    34833125
    34837517
    34841957
    34846413
    34850871
    34855355
    34859807
    34864098
    34868545
    34872933
    34877299
    34881648
    34885993
    34890287
    34894725
    34899190
    34903631
    34908046
    34912482
    34916880
    34921260
    34925688
    34930139
    34934557
    34939028
    34943515
    34947971
    34952496
    34956996
    34961597
    34966166
    34970649
    34975094
    34979556
    34984010
    34988440
    34992951
    34997458
    35001970
    35006461
    35010942
    35015499
    35019973
    35024493
    35028987
    35033466
    35037986
    35042545
    35047056
    35051572
    35056082
    35060556
    35065040
    35069519
    35074050
    35078596
    35083158
    35087662
    35092116
    35096630
    35101207
    35105775
    35110310
    35114818
    35119348
    35123864
    35128345
    35132789
    35137211
    35141653
    35146071
    35150542
    35155086
    35159657
    35164137
    35168612
    35173026
    35177480
    35182003
    35186560
    35191089
    35195574
    35200114
    35204706
    35209282
    35213822
    35218356
    35222827
    35227338
    35231879
    35236553
    35241040
    35245443
    35249917
    35254383
    35258856
    35263232
    35267721
    35272222
    35276793
    35281228
    35285717
    35290226
    35294758
    35299269
    35303821
    35308358
    35312828
    35317311
    35321747
    35326182
    35330719
    35335238
    35339752
    35344273
    35348732
    35353203
    35357733
    35362202
    35366649
    35371156
    35375642
    35380078
    35384602
    35389129
    35393642
    35398111
    35402631
    35407195
    35411744
    35416244
    35420660
    35425077
    35429477
    35433777
    35438123
    35442548
    35447036
    35451558
    35456099
    35460572
    35464956
    35469372
    35473783
    35478223
    35482720
    35487236
    35491738
    35496184
    35500694
    35505138
    35509552
    35513947
    35518434
    35522880
    35527332
    35531767
    35536222
    35540674
    35545071
    35549441
    35553861
    35558338
    35562730
    35567276
    35571750
    35576277
    35580726
    35585262
    35589859
    35594399
    35599012
    35603519
    35608022
    35612493
    35616906
    35621266
    35625619
    35630025
    35634429
    35638814
    35643213
    35647655
    35652120
    35656640
    35661198
    35665716
    35670211
    35674680
    35679225
    35683757
    35688238
    35692792
    35697341
    35701915
    35706540
    35711160
    35715774
    35720160
    35724529
    35729016
    35733556
    35738143
    35742667
    35747196
    35751736
    35756277
    35760751
    35765353
    35769861
    35774360
    35778773
    35783232
    35787678
    35792134
    35796555
    35800956
    35805400
    35809860
    35814326
    35818811
    35823287
    35827786
    35832308
    35836807
    35841279
    35845838
    35850321
    35854780
    35859178
    35863581
    35867981
    35872435
    35876826
    35881266
    35885720
    35890249
    35894830
    35899474
    35904123
    35908756
    35913288
    35917820
    35922313
    35926794
    35931316
    35935801
    35940354
    35944953
    35949534
    35954134
    35958684
    35963200
    35967712
    35972282
    35976742
    35981213
    35985816
    35990412
    35995027
    35999573
    36004189
    36008698
    36013225
    36017714
    36022203
    36026656
    36031090
    36035595
    36040083
    36044591
    36049008
    36053644
    36058180
    36062609
    36067003
    36071403
    36075871
    36080352
    36084823
    36089342
    36093860
    36098319
    36102815
    36107456
    36111918
    36116343
    36120761
    36125140
    36129538
    36134022
    36138438
    36142885
    36147332
    36151816
    36156320
    36160890
    36165422
    36169970
    36174545
    36179207
    36183819
    36188332
    36192870
    36197442
    36201962
    36206481
    36210984
    36215452
    36219989
    36224507
    36229023
    36233546
    36237997
    36242511
    36247025
    36251592
    36256173
    36260820
    36265349
    36269863
    36274409
    36278963
    36283488
    36288058
    36292651
    36297216
    36301870
    36306470
    36311039
    36315604
    36320190
    36324818
    36329450
    36334031
    36338593
    36343191
    36347849
    36352325
    36356941
    36361582
    36366246
    36370925
    36375620
    36380178
    36384820
    36389488
    36394077
    36398636
    36403280
    36407919
    36412548
    36417132
    36421730
    36426288
    36430955
    36435573
    36440232
    36444920
    36449520
    36454124
    36458550
    36463099
    36467667
    36472230
    36476790
    36481351
    36485913
    36490496
    36495106
    36499704
    36504210
    36508888
    36513542
    36518200
    36522725
    36527236
    36531771
    36536245
    36540846
    36545407
    36550064
    36554632
    36559205
    36563890
    36568596
    36573308
    36578047
    36582844
    36587548
    36592241
    36596851
    36601452
    36606092
    36610767
    36615416
    36620115
    36624840
    36629488
    36634069
    36638637
    36643188
    36647656
    36652093
    36656576
    36661023
    36665470
    36669939
    36674482
    36678988
    36683417
    36687954
    36692509
    36697122
    36701606
    36706137
    36710650
    36715098
    36719468
    36723911
    36728348
    36732866
    36737317
    36741762
    36746271
    36750746
    36755161
    36759576
    36764009
    36768449
    36772942
    36777409
    36781901
    36786421
    36790968
    36795541
    36800143
    36804781
    36809359
    36813940
    36818526
    36823157
    36827600
    36831886
    36836223
    36840555
    36844958
    36849242
    36853536
    36857900
    36862282
    36866800
    36871208
    36875620
    36880048
    36884444
    36888874
    36893420
    36897976
    36902552
    36907141
    36911728
    36916388
    36921077
    36925746
    36930360
    36934959
    36939534
    36944156
    36948729
    36953358
    36957970
    36962452
    36967088
    36971671
    36976283
    36980724
    36985346
    36989917
    36994533
    36999126
    37003756
    37008282
    37012870
    37017421
    37021935
    37026549
    37031122
    37035698
    37040280
    37044871
    37049536
    37054271
    37058834
    37063417
    37068068
    37072684
    37077210
    37081675
    37086258
