2.462448 
2.459949 
2.453431 
2.452478 
2.449623 
2.458629 
2.471467 
2.495457 
2.521131 
2.504717 
2.506053 
2.521580 
2.560036 
2.540504 
2.507997 
2.496741 
2.476540 
2.477484 
2.488277 
2.498056 
2.512900 
2.504108 
2.482350 
2.493094 
2.500352 
2.514985 
2.518751 
2.509417 
2.497014 
2.486116 
2.488573 
2.510900 
2.513427 
2.498126 
2.484071 
2.475502 
2.471866 
2.488413 
2.505970 
2.499011 
2.487606 
2.490348 
2.495078 
2.492185 
2.485820 
2.495361 
2.511118 
2.531581 
2.564091 
2.559561 
2.532532 
2.512857 
2.496904 
2.497502 
2.496800 
2.493409 
2.491916 
2.494789 
2.490608 
2.478788 
2.477098 
2.474823 
2.483190 
2.490307 
2.492516 
2.489800 
2.500106 
2.510747 
2.498792 
2.521358 
2.528265 
2.505682 
2.490456 
2.493333 
2.496644 
2.486461 
2.511402 
2.526331 
2.518564 
2.509309 
2.501503 
2.504856 
2.484253 
2.482005 
2.483991 
2.483199 
2.492784 
2.509745 
2.509500 
2.500392 
2.500529 
2.517518 
2.575412 
2.598186 
2.613739 
2.609538 
2.613369 
2.607790 
2.611173 
2.632272 
2.620170 
2.601250 
2.605716 
2.602789 
2.605803 
2.593310 
2.613367 
2.611247 
2.601866 
2.598400 
2.604261 
2.591515 
2.585826 
2.601574 
2.598088 
2.590243 
2.571152 
2.576921 
2.581236 
2.579940 
2.563584 
2.580999 
2.584838 
2.567899 
2.566599 
2.568030 
2.598953 
2.609175 
2.530853 
2.492701 
2.536889 
2.520953 
2.483474 
2.455754 
2.437984 
2.426345 
2.422743 
2.424213 
2.428502 
2.461054 
2.487738 
2.474797 
2.448765 
2.453610 
2.505789 
2.570106 
2.548156 
2.519688 
2.481243 
2.456297 
2.448083 
2.444821 
2.438506 
2.438604 
2.441537 
2.438309 
2.441119 
2.448646 
2.469225 
2.474456 
2.478272 
2.480774 
2.479030 
2.477528 
2.471750 
2.465074 
2.493601 
2.509790 
2.498631 
2.505601 
2.502638 
2.490667 
2.483751 
2.506868 
2.511932 
2.496287 
2.496589 
2.495179 
2.502903 
2.509612 
2.505473 
2.508625 
2.515252 
2.501242 
2.510397 
2.516382 
2.511143 
2.504472 
2.479256 
2.478581 
2.498766 
2.510748 
2.510587 
2.512554 
2.542748 
2.542737 
2.549015 
2.533361 
2.531807 
2.546130 
2.548735 
2.527169 
2.518914 
2.506397 
2.517311 
2.509997 
2.542705 
2.528076 
2.508790 
2.505275 
2.508314 
2.493068 
2.491281 
2.482941 
2.490178 
2.514376 
2.523582 
2.507437 
2.497825 
2.487790 
2.490835 
2.508676 
2.505325 
2.528716 
2.522430 
2.504617 
2.525380 
2.534928 
2.551232 
2.548399 
2.549569 
2.553616 
2.546688 
2.522134 
2.526599 
2.522040 
2.533482 
2.530986 
2.552900 
2.549950 
2.536457 
2.540040 
2.541828 
2.529410 
2.519583 
2.545019 
2.540613 
2.531331 
2.526673 
2.539595 
2.525928 
2.524026 
2.525253 
2.518327 
2.519222 
2.534604 
2.528936 
2.531427 
2.550300 
2.552224 
2.543839 
2.519444 
2.494609 
2.496936 
2.512369 
2.520326 
2.533498 
2.562567 
2.555886 
2.569741 
2.553234 
2.548483 
2.542409 
2.548829 
2.563300 
2.564311 
2.566987 
2.566761 
2.553955 
2.579097 
2.584037 
2.578303 
2.576100 
2.574412 
2.572963 
2.571003 
2.574159 
2.579698 
2.575763 
2.569690 
2.568257 
2.565867 
2.559782 
2.551222 
2.545124 
2.533064 
2.525456 
2.525188 
2.513715 
2.514443 
2.510370 
2.508977 
2.508047 
2.494835 
2.489858 
2.492999 
2.495309 
2.513173 
2.544396 
2.515455 
2.510108 
2.503728 
2.498672 
2.511864 
2.535120 
2.534144 
2.528362 
2.525902 
2.519475 
2.509390 
2.508144 
2.533686 
2.547244 
2.525551 
2.528360 
2.513881 
2.499939 
2.515734 
2.519036 
2.509302 
2.515756 
2.544066 
2.547347 
2.543235 
2.541571 
2.544208 
2.535733 
2.536391 
2.519429 
2.529123 
2.544277 
2.542269 
2.531232 
2.547586 
2.541285 
2.519425 
2.505714 
2.510950 
2.507594 
2.512215 
2.530195 
2.522393 
2.514213 
2.516531 
2.522615 
2.523535 
2.531728 
2.542206 
2.537240 
2.527331 
2.513412 
2.504614 
2.515170 
2.517623 
2.514235 
2.523193 
2.516207 
2.526732 
2.523894 
2.521685 
2.510830 
2.513385 
2.505768 
2.527708 
2.538908 
2.568917 
2.551695 
2.524860 
2.527598 
2.521303 
2.502887 
2.509210 
2.519428 
2.508361 
2.492711 
2.502720 
2.523671 
2.522009 
2.523909 
2.509013 
2.514755 
2.499155 
2.486657 
2.476431 
2.474595 
2.486235 
2.509540 
2.503547 
2.512212 
2.518161 
2.507624 
2.501788 
2.497324 
2.489179 
2.483305 
2.489687 
2.499306 
2.505040 
2.520267 
2.522739 
2.516392 
2.492611 
2.477838 
2.477310 
2.484911 
2.493937 
2.529592 
2.533510 
2.534690 
2.538609 
2.518294 
2.503603 
2.497507 
2.493550 
2.508691 
2.507783 
2.503756 
2.496199 
2.505384 
2.522325 
2.517220 
2.501456 
2.499274 
2.502544 
2.496196 
2.490057 
2.504930 
2.523621 
2.531013 
2.527837 
2.519757 
2.517900 
2.504253 
2.480996 
2.494755 
2.498226 
2.495055 
2.509708 
2.491562 
2.478510 
2.469150 
2.468222 
2.490844 
2.506185 
2.509706 
2.506507 
2.502713 
2.500907 
2.523935 
2.526191 
2.521669 
2.512262 
2.505436 
2.503914 
2.495129 
2.495128 
2.507239 
2.508699 
2.527775 
2.521114 
2.511822 
2.527124 
2.532972 
2.519695 
2.528007 
2.509762 
2.495030 
2.491820 
2.512615 
2.519544 
2.505528 
2.507879 
2.507667 
2.509920 
2.506182 
2.504283 
2.504735 
2.495462 
2.493766 
2.491974 
2.491140 
2.494845 
2.486312 
2.480281 
2.484969 
2.484597 
2.486362 
2.493373 
2.505924 
2.518023 
2.537382 
2.548331 
2.552871 
2.557425 
2.555165 
2.560567 
2.570287 
2.571241 
2.567090 
2.573925 
2.578119 
2.569651 
2.565251 
2.562564 
2.563287 
2.554215 
2.538151 
2.532774 
2.527247 
2.517481 
2.509947 
2.506351 
2.493148 
2.492126 
2.495542 
2.487003 
2.484319 
2.486501 
2.480941 
2.492957 
2.505252 
2.517350 
2.530911 
2.529562 
2.526921 
2.527322 
2.525948 
2.524468 
2.522305 
2.517709 
2.514309 
2.517368 
2.522068 
2.512699 
2.507257 
2.501036 
2.494741 
2.494186 
2.491187 
2.486450 
2.491038 
2.492090 
2.489789 
2.496580 
2.499092 
2.505296 
2.503763 
2.508292 
2.508054 
2.507322 
2.501087 
2.502084 
2.493731 
2.492715 
2.481736 
2.483081 
2.485776 
2.489051 
2.484842 
2.492807 
2.492439 
2.486412 
2.489598 
2.502200 
2.501193 
2.494243 
2.498780 
2.495235 
2.498131 
2.506306 
2.503481 
2.502649 
2.488306 
2.475757 
2.477338 
2.475199 
2.474264 
2.472824 
2.474242 
2.471583 
2.466901 
2.477220 
2.486325 
2.482253 
2.482999 
2.491882 
2.503462 
2.504460 
2.502747 
2.526326 
2.524632 
2.508120 
2.504286 
2.511932 
2.509167 
2.510677 
2.509356 
2.495592 
2.490930 
2.492732 
2.494388 
2.487496 
2.480498 
2.473510 
2.476835 
2.471603 
2.468496 
2.467955 
2.470997 
2.475586 
2.490683 
2.524963 
2.512713 
2.497085 
2.492894 
2.481984 
2.474308 
2.478379 
2.476163 
2.473683 
2.487464 
2.527609 
2.540695 
2.544325 
2.540525 
2.545951 
2.549193 
2.557935 
2.565191 
2.563080 
2.563808 
2.561506 
2.545803 
2.536086 
2.524198 
2.520407 
2.519130 
2.515186 
2.515349 
2.508931 
2.508450 
2.501900 
2.492652 
2.491141 
2.484513 
2.480097 
2.506974 
2.519708 
2.517351 
2.506557 
2.504881 
2.497632 
2.485131 
2.483375 
2.481811 
2.482065 
2.485013 
2.489205 
2.494645 
2.489864 
2.494898 
2.511171 
2.511965 
2.521090 
2.515947 
2.514735 
2.514004 
2.505615 
2.507452 
2.509493 
2.507637 
2.499631 
2.500932 
2.497001 
2.496513 
2.490637 
2.494702 
2.502177 
2.514098 
2.492420 
2.489079 
2.494911 
2.497529 
2.489067 
2.486206 
2.464277 
2.451374 
2.453848 
2.455142 
2.457243 
2.455101 
2.454877 
2.462683 
2.494303 
2.502014 
2.485247 
2.476609 
2.489642 
2.493045 
2.492594 
2.488892 
2.477370 
2.469706 
2.464841 
2.466663 
2.465703 
2.460464 
2.463110 
2.469769 
2.475363 
2.473994 
2.457891 
2.455542 
2.457811 
2.462671 
2.477637 
2.483893 
2.491593 
2.490057 
2.485896 
2.483667 
2.482000 
2.471722 
2.457139 
2.446880 
2.447911 
2.460516 
2.454498 
2.453750 
2.481427 
2.495696 
2.499035 
2.497359 
2.496262 
2.495059 
2.495633 
2.489617 
2.502253 
2.496052 
2.475263 
2.460749 
2.468715 
2.472102 
2.469042 
2.460232 
2.470355 
2.463975 
2.458015 
2.469005 
2.472807 
2.477102 
2.483390 
2.475703 
2.479801 
2.491592 
2.499595 
2.497935 
2.515625 
2.546415 
2.536190 
2.533447 
2.524621 
2.517485 
2.515112 
2.505456 
2.483692 
2.475161 
2.469862 
2.465156 
2.457240 
2.459377 
2.461808 
2.464244 
2.465462 
2.465756 
2.489677 
2.487892 
2.481454 
2.483978 
2.485781 
2.484051 
2.484487 
2.477441 
2.474314 
2.474984 
2.469326 
2.463630 
2.461056 
2.462125 
2.467348 
2.481140 
2.513799 
2.508476 
2.504939 
2.503907 
2.503451 
2.499652 
2.496703 
2.490318 
2.484289 
2.485944 
2.489239 
2.484724 
2.483669 
2.489148 
2.491824 
2.485156 
2.479436 
2.477224 
2.470057 
2.468916 
2.454540 
2.447523 
2.451771 
2.459569 
2.473328 
2.498903 
2.499804 
2.494588 
2.494470 
2.484065 
2.485459 
2.485378 
2.485119 
2.490653 
2.500359 
2.497755 
2.500148 
2.510801 
2.517035 
2.495312 
2.477555 
2.485285 
2.481130 
2.482695 
2.485754 
2.473969 
2.467636 
2.465511 
2.453799 
2.456167 
2.459651 
2.472670 
2.492223 
2.487383 
2.477500 
2.473668 
2.493210 
2.511026 
2.508119 
2.499615 
2.489885 
2.467852 
2.465837 
2.488065 
2.514904 
2.509593 
2.496968 
2.478174 
2.474478 
2.480371 
2.493561 
2.489848 
2.488311 
2.485414 
2.478911 
2.470031 
2.463934 
2.463339 
2.460234 
2.456103 
2.463693 
2.478000 
2.487896 
2.484659 
2.486031 
2.483105 
2.489070 
2.495095 
2.503900 
2.497129 
2.482076 
2.475246 
2.464720 
2.466506 
2.465940 
2.480120 
2.510897 
2.507506 
2.490130 
2.506335 
2.524992 
2.519967 
2.504433 
2.483552 
2.482149 
2.474632 
2.464303 
2.462123 
2.458012 
2.472208 
2.486395 
2.509042 
2.502192 
2.487869 
2.481183 
2.470253 
2.469578 
2.472551 
2.478849 
2.499333 
2.509137 
2.492298 
2.478073 
2.476730 
2.476856 
2.493950 
2.501075 
2.490336 
2.487600 
2.490720 
2.500722 
2.504175 
2.492067 
2.484787 
2.479400 
2.478806 
2.483248 
2.481730 
2.474507 
2.476806 
2.483264 
2.491182 
2.499988 
2.515934 
2.529608 
2.537863 
2.536238 
2.536169 
2.534436 
2.534057 
2.534061 
2.531895 
2.535565 
2.532219 
2.530821 
2.519598 
2.515196 
2.517494 
2.513149 
2.507608 
2.504223 
2.498137 
2.493850 
2.500499 
2.489819 
2.479952 
2.473567 
2.472135 
2.479077 
2.478249 
2.480502 
2.477277 
2.475326 
2.483529 
2.506147 
2.503588 
2.498165 
2.499337 
2.499412 
2.496566 
2.492810 
2.482482 
2.475881 
2.474859 
2.491742 
2.501960 
2.503855 
2.505362 
2.491145 
2.479626 
2.483637 
2.502931 
2.533847 
2.545252 
2.544116 
2.528871 
2.509392 
2.495012 
2.485010 
2.475924 
2.470218 
2.463925 
2.460344 
2.456503 
2.456137 
2.463904 
2.464990 
2.474722 
2.489811 
2.494707 
2.490933 
2.488699 
2.474701 
2.480434 
2.494583 
2.493787 
2.514788 
2.519764 
2.517292 
2.518056 
2.511815 
2.496052 
2.491309 
2.487493 
2.477374 
2.478398 
2.480614 
2.485730 
2.486112 
2.487199 
2.495450 
2.500000 
2.496540 
2.485837 
2.481472 
2.485540 
2.482840 
2.476235 
2.477701 
2.479873 
2.480908 
2.477668 
2.476199 
2.473618 
2.475994 
2.473917 
2.467723 
2.467308 
2.469435 
2.474449 
2.482610 
2.476553 
2.474036 
2.471321 
2.481895 
2.477173 
2.475164 
2.480383 
2.484964 
2.481050 
2.475138 
2.471768 
2.471759 
2.472583 
2.476532 
2.485170 
2.481719 
2.473019 
2.473126 
2.477471 
2.477496 
2.480412 
2.481741 
2.486984 
2.488439 
2.495930 
2.497882 
2.508723 
2.523534 
2.524538 
2.522394 
2.522952 
2.534087 
2.527848 
2.527966 
2.532263 
2.527654 
2.529860 
2.538996 
2.533174 
2.532695 
2.534484 
2.541399 
2.543998 
2.539222 
2.532854 
2.539085 
2.542412 
2.542805 
2.545370 
2.544151 
2.548163 
2.555916 
2.549939 
2.544102 
2.538370 
2.530058 
2.516842 
2.525973 
2.522999 
2.520143 
2.511783 
2.503828 
2.500844 
2.501972 
2.515208 
2.522785 
2.522472 
2.508521 
2.512920 
2.525128 
2.541513 
2.551529 
2.548063 
2.543326 
2.536847 
2.534014 
2.528200 
2.521680 
2.520101 
2.524995 
2.520688 
2.510948 
2.505553 
2.500132 
2.476902 
2.472147 
2.467917 
2.467917 
2.470629 
2.473311 
2.478315 
2.480293 
2.478554 
2.469746 
2.470749 
2.474398 
2.486135 
2.490842 
2.495829 
2.493760 
2.493574 
2.493279 
2.490041 
2.483503 
2.480411 
2.472767 
2.477378 
2.485510 
2.484232 
2.482568 
2.479438 
2.481673 
2.491021 
2.497691 
2.497748 
2.505010 
2.506574 
2.497170 
2.501630 
2.502818 
2.499165 
2.493500 
2.493080 
2.494078 
2.494198 
2.482611 
2.480409 
2.483795 
2.489241 
2.500334 
2.492688 
2.495166 
2.495437 
2.488366 
2.484466 
2.482897 
2.482052 
2.487483 
2.485848 
2.487896 
2.487738 
2.489829 
2.487536 
2.482602 
2.476366 
2.479963 
2.480506 
2.481093 
2.477121 
2.476638 
2.484181 
2.483211 
2.477257 
2.477024 
2.485540 
2.481732 
2.472494 
2.468400 
2.478441 
2.492690 
2.491981 
2.501038 
2.500375 
2.500959 
2.502169 
2.502503 
2.496861 
2.493805 
2.494188 
2.488011 
2.479214 
2.476140 
2.477859 
2.475319 
2.476660 
2.479199 
2.486332 
2.485624 
2.492659 
2.495164 
2.497242 
2.504124 
2.509342 
2.501167 
2.505143 
2.495843 
2.495952 
2.496198 
2.489459 
2.490820 
2.485404 
2.488418 
2.483339 
2.483121 
2.476103 
2.471333 
2.467136 
2.461801 
2.450039 
2.445138 
2.455370 
2.460702 
2.455106 
2.455115 
2.452845 
2.450600 
2.463313 
2.480238 
2.475410 
2.472799 
2.471242 
2.477037 
2.482096 
2.476776 
2.492412 
2.501031 
2.503981 
2.498751 
2.498453 
2.502778 
2.509831 
2.512393 
2.513953 
2.517857 
2.508476 
2.508206 
2.507850 
2.506105 
2.508016 
2.511422 
2.503008 
2.507229 
2.500117 
2.500163 
2.500183 
2.490765 
2.487683 
2.484621 
2.490402 
2.498778 
2.507733 
2.514543 
2.515191 
2.519172 
2.515579 
2.519517 
2.518602 
2.519368 
2.516204 
2.519630 
2.516897 
2.518330 
2.508585 
2.503723 
2.502807 
2.500191 
2.496697 
2.503756 
2.506354 
2.507153 
2.505261 
2.506268 
2.496504 
2.498494 
2.500870 
2.503631 
2.500248 
2.500246 
2.490186 
2.483965 
2.482553 
2.474063 
2.477842 
2.476035 
2.474237 
2.474773 
2.465393 
2.463932 
2.474329 
2.475059 
2.465324 
2.455213 
2.458076 
2.461330 
2.473135 
2.496084 
2.508180 
2.517525 
2.519213 
2.517683 
2.523467 
2.524428 
2.523910 
2.526332 
2.512924 
2.509360 
2.495836 
2.471026 
2.456932 
2.449393 
2.451161 
2.448515 
2.442248 
2.445568 
2.447629 
2.452216 
2.454767 
2.454327 
2.459000 
2.463787 
2.462616 
2.466801 
2.465723 
2.474216 
2.485494 
2.492309 
2.493574 
2.492522 
2.496012 
2.492064 
2.490578 
2.485791 
2.480684 
2.483355 
2.478597 
2.478765 
2.477791 
2.478468 
2.478916 
2.477701 
2.478588 
2.474949 
2.470396 
2.474977 
2.478946 
2.473771 
2.475782 
2.471199 
2.473937 
2.474796 
2.467088 
2.468103 
2.474666 
2.470881 
2.476895 
2.477627 
2.477360 
2.475555 
2.475057 
2.488428 
2.491620 
2.490759 
2.478959 
2.481374 
2.491701 
2.500495 
2.497337 
2.500652 
2.505846 
2.508670 
2.510034 
2.503817 
2.498276 
2.498799 
2.496879 
2.496584 
2.492495 
2.490994 
2.489646 
2.487218 
2.487623 
2.485578 
2.484472 
2.483396 
2.481229 
2.476339 
2.481456 
2.477334 
2.474051 
2.483181 
2.484462 
2.474727 
2.475206 
2.472012 
2.472086 
2.473987 
2.477701 
2.475954 
2.471956 
2.473405 
2.464557 
2.467300 
2.469974 
2.477329 
2.470358 
2.466037 
2.467820 
2.469741 
2.468140 
2.469621 
2.469565 
2.457206 
2.459149 
2.459996 
2.459281 
2.454520 
2.451728 
2.455295 
2.459625 
2.453445 
2.447283 
2.446136 
2.452002 
2.453386 
2.457484 
2.455871 
2.450874 
2.443970 
2.453494 
2.466275 
2.483328 
2.488608 
2.475868 
2.465266 
2.468260 
2.464367 
2.457993 
2.447782 
2.451434 
2.455573 
2.454385 
2.451086 
2.452055 
2.453972 
2.464328 
2.466782 
2.464703 
2.462997 
2.456429 
2.458722 
2.457198 
2.455911 
2.456237 
2.457823 
2.461697 
2.467543 
2.464895 
2.463761 
2.462866 
2.466656 
2.462436 
2.459447 
2.456168 
2.453955 
2.455981 
2.467911 
2.469613 
2.488457 
2.507733 
2.512287 
2.509106 
2.506623 
2.499363 
2.497363 
2.482992 
2.469354 
2.461493 
2.460992 
2.459881 
2.448980 
2.447494 
2.454623 
2.449739 
2.443248 
2.441120 
2.438269 
2.446082 
2.444284 
2.440280 
2.439726 
2.458010 
2.477210 
2.493229 
2.480228 
2.472242 
2.468210 
2.469344 
2.470450 
2.463249 
2.453090 
2.441977 
2.437055 
2.441061 
2.447378 
2.448271 
2.450073 
2.441711 
2.445251 
2.450806 
2.454392 
2.458685 
2.466300 
2.468138 
2.466845 
2.473629 
2.476551 
2.478850 
2.481358 
2.477122 
2.477412 
2.483063 
2.493485 
2.490434 
2.489704 
2.493091 
2.490699 
2.490866 
2.490618 
2.494950 
2.489984 
2.491470 
2.493515 
2.493624 
2.497363 
2.505010 
2.510775 
2.521139 
2.526050 
2.525868 
2.526458 
2.518487 
2.521749 
2.524139 
2.527302 
2.532494 
2.528969 
2.528770 
2.528664 
2.514569 
2.499662 
2.503081 
2.497468 
2.491651 
2.487114 
2.493016 
2.497480 
2.492583 
2.492715 
2.498066 
2.495502 
2.495540 
2.493836 
2.496268 
2.494503 
2.493083 
2.486938 
2.476108 
2.466161 
2.464999 
2.464567 
2.462485 
2.454741 
2.454135 
2.454072 
2.455239 
2.452540 
2.445775 
2.450179 
2.455344 
2.452085 
2.451903 
2.454697 
2.456992 
2.459279 
2.457216 
2.456616 
2.454429 
2.461537 
2.461629 
2.461024 
2.458563 
2.461810 
2.460630 
2.461349 
2.466066 
2.480633 
2.484006 
2.472226 
2.463254 
2.461841 
2.465846 
2.471897 
2.476616 
2.468251 
2.468045 
2.466876 
2.472578 
2.466889 
2.468225 
2.473785 
2.471358 
2.478359 
2.487229 
2.491643 
2.502886 
2.494346 
2.488240 
2.484358 
2.470465 
2.475110 
2.474125 
2.476391 
2.491684 
2.496754 
2.495267 
2.493026 
2.498449 
2.488269 
2.489613 
2.487934 
2.476960 
2.480391 
2.482401 
2.480987 
2.487984 
2.490620 
2.483032 
2.484253 
2.486602 
2.490725 
2.491034 
2.490784 
2.490094 
2.494399 
2.486140 
2.482355 
2.478929 
2.475012 
2.471510 
2.467365 
2.472588 
2.483293 
2.492099 
2.490133 
2.487882 
2.488078 
2.497370 
2.494065 
2.493063 
2.493998 
2.493790 
2.504534 
2.510173 
2.508131 
2.509095 
2.510457 
2.507523 
2.510515 
2.506894 
2.505003 
2.499739 
2.493969 
2.493226 
2.493257 
2.490040 
2.491397 
2.479331 
2.476001 
2.477870 
2.478981 
2.485444 
2.480185 
2.475362 
2.477261 
2.483885 
2.480344 
2.476834 
2.473281 
2.478637 
2.484899 
2.480768 
2.483939 
2.492404 
2.488385 
2.483952 
2.484067 
2.478006 
2.475543 
2.477991 
2.483048 
2.489919 
2.485357 
2.497364 
2.504508 
2.497504 
2.488130 
2.486471 
2.484184 
2.476093 
2.480022 
2.484491 
2.481673 
2.488482 
2.483353 
2.478014 
2.474912 
2.471018 
2.470902 
2.476974 
2.477357 
2.472742 
2.471353 
2.469067 
2.469382 
2.467277 
2.463887 
2.466056 
2.471347 
2.477928 
2.482364 
2.487811 
2.502890 
2.508360 
2.507612 
2.505836 
2.496320 
2.493985 
2.495989 
2.486474 
2.486791 
2.482974 
2.482372 
2.485225 
2.483022 
2.486324 
2.489420 
2.484944 
2.485099 
2.486441 
2.490138 
2.498299 
2.504015 
2.502201 
2.507921 
2.508518 
2.501062 
2.501347 
2.495876 
2.488008 
2.489543 
2.479745 
2.479574 
2.479359 
2.484203 
2.474812 
2.473636 
2.469943 
2.468822 
2.471596 
2.469832 
2.468301 
2.470555 
2.477658 
2.476346 
2.480651 
2.493488 
2.494800 
2.491775 
2.495027 
2.492615 
2.498311 
2.494414 
2.499371 
2.491951 
2.489013 
2.490424 
2.481725 
2.496770 
2.488235 
2.477158 
2.471142 
2.475501 
2.465489 
2.473727 
2.484675 
2.483500 
2.478008 
2.476210 
2.477471 
2.479140 
2.477612 
2.470076 
2.461402 
2.456324 
2.453408 
2.450384 
2.454085 
2.453000 
2.450238 
2.459710 
2.459896 
2.462004 
2.459964 
2.458843 
2.455826 
2.465363 
2.474527 
2.481729 
2.467101 
2.465540 
2.473226 
2.473385 
2.475507 
2.475517 
2.477711 
2.479657 
2.476168 
2.477904 
2.475415 
2.470004 
2.476991 
2.482415 
2.483122 
2.479183 
2.474808 
2.471098 
2.470332 
2.470662 
2.473895 
2.467484 
2.472579 
2.472414 
2.468371 
2.464158 
2.463802 
2.461055 
2.466278 
2.470537 
2.475159 
2.478069 
2.487615 
2.485675 
2.484029 
2.487393 
2.488659 
2.494832 
2.498126 
2.498479 
2.491615 
2.494895 
2.493857 
2.495216 
2.488770 
2.484277 
2.484446 
2.478391 
2.467709 
2.464319 
2.463382 
2.464732 
2.469343 
2.466871 
2.470555 
2.465484 
2.469820 
2.476494 
2.470758 
2.465224 
2.467379 
2.466487 
2.463885 
2.458692 
2.454305 
2.455611 
2.459887 
2.456378 
2.456527 
2.468613 
2.467128 
2.472177 
2.478452 
2.490616 
2.491611 
2.487930 
2.492006 
2.490113 
2.489672 
2.477645 
2.475485 
2.477418 
2.469646 
2.467036 
2.465731 
2.452594 
2.447777 
2.443874 
2.445117 
2.441554 
2.435803 
2.439199 
2.450384 
2.456719 
2.460604 
2.465340 
2.469915 
2.469745 
2.468233 
2.467512 
2.463523 
2.465168 
2.455938 
2.452462 
2.446329 
2.437538 
2.442066 
2.447695 
2.448960 
2.443817 
2.446184 
2.447579 
2.451841 
2.457035 
2.461853 
2.467114 
2.465154 
2.464084 
2.467499 
2.469047 
2.470797 
2.472686 
2.473045 
2.470298 
2.465681 
2.462086 
2.463268 
2.458253 
2.461468 
2.462407 
2.458786 
2.457720 
2.459664 
2.461841 
2.459857 
2.461563 
2.467458 
2.462919 
2.461841 
2.468986 
2.461985 
2.459970 
2.463772 
2.467811 
2.467434 
2.469601 
2.478737 
2.476517 
2.472986 
2.474287 
2.470425 
2.472749 
2.468822 
2.461123 
2.459741 
2.455633 
2.460086 
2.460577 
2.456705 
2.452221 
2.453756 
2.451571 
2.457290 
2.457903 
2.457269 
2.453701 
2.456254 
2.458205 
2.468814 
2.482688 
2.477887 
2.477422 
2.476309 
2.475725 
2.482127 
2.481912 
2.481345 
2.478879 
2.475760 
2.474203 
2.481456 
2.481956 
2.473469 
2.473493 
2.475324 
2.481885 
2.482131 
2.490421 
2.491807 
2.493188 
2.488721 
2.484696 
2.489688 
2.484510 
2.489180 
2.492078 
2.500487 
2.493235 
2.494071 
2.487053 
2.486717 
2.485172 
2.482279 
2.476173 
2.468178 
2.459157 
2.461742 
2.459573 
2.449524 
2.448043 
2.446884 
2.440299 
2.449676 
2.445584 
2.446474 
2.444517 
2.454458 
2.457153 
2.456585 
2.462131 
2.461923 
2.466997 
2.467746 
2.465887 
2.468987 
2.458500 
2.453900 
2.457303 
2.457418 
2.458552 
2.458051 
2.454948 
2.449375 
2.458230 
2.464713 
2.465380 
2.472395 
2.479228 
2.483798 
2.477346 
2.475188 
2.482973 
2.492894 
2.487732 
2.482320 
2.481200 
2.470917 
2.460756 
2.458058 
2.456015 
2.450874 
2.454332 
2.455796 
2.460214 
2.461842 
2.465755 
2.472457 
2.477689 
2.474077 
2.475662 
2.472761 
2.472709 
2.470743 
2.477665 
2.473814 
2.466296 
2.460223 
2.467549 
2.469802 
2.469334 
2.474171 
2.479405 
2.473062 
2.471978 
2.481107 
2.497262 
2.496692 
2.478217 
2.471576 
2.464979 
2.467271 
2.457277 
2.455967 
2.460404 
2.464556 
2.456740 
2.457305 
2.459863 
2.459429 
2.451167 
2.447676 
2.446745 
2.447181 
2.456407 
2.455128 
2.450588 
2.448794 
2.445615 
2.448230 
2.453694 
2.460651 
2.460577 
2.459813 
2.459641 
2.468122 
2.471464 
2.470255 
2.471057 
2.480774 
2.487386 
2.498807 
2.494229 
2.490420 
2.485348 
2.477223 
2.480015 
2.475332 
2.477701 
2.482722 
2.485132 
2.484496 
2.481363 
2.477698 
2.478455 
2.472827 
2.475860 
2.475446 
2.471108 
2.473258 
2.477831 
2.479935 
2.479194 
2.480459 
2.476335 
2.479308 
2.474686 
2.472521 
2.472220 
2.467774 
2.467610 
2.471977 
2.474903 
2.471889 
2.469615 
2.460928 
2.465439 
2.465603 
2.470676 
2.473229 
2.473888 
2.474419 
2.475860 
2.470994 
2.465330 
2.511462 
2.524822 
2.519868 
2.527107 
2.524091 
2.519411 
2.516598 
2.505352 
2.506309 
2.499832 
2.510449 
2.513845 
2.510806 
2.502080 
2.506071 
2.504038 
2.498173 
2.499212 
2.502623 
2.498442 
2.499093 
2.509817 
2.514986 
2.507934 
2.498910 
2.498343 
2.489862 
2.488340 
2.494440 
2.506171 
2.500158 
2.499403 
2.506569 
2.507765 
2.501561 
2.500178 
2.491901 
2.487016 
2.480795 
2.479717 
2.479646 
2.481776 
2.485966 
2.479321 
2.474530 
2.487384 
2.496104 
2.485037 
2.484820 
2.486733 
2.496435 
2.495773 
2.493144 
2.493849 
2.492960 
2.492124 
2.496048 
2.501950 
2.504883 
2.503829 
2.501709 
2.497424 
2.496404 
2.498053 
2.498800 
2.499650 
2.493700 
2.503952 
2.499646 
2.508982 
2.504525 
2.490943 
2.482539 
2.479483 
2.480757 
2.479580 
2.481921 
2.485933 
2.486503 
2.485221 
2.481018 
2.486305 
2.492466 
2.501431 
2.503169 
2.508171 
2.502538 
2.491935 
2.495312 
2.500319 
2.500000 
2.512015 
2.521432 
2.524019 
2.523335 
2.513236 
2.512531 
2.519048 
2.510899 
2.517560 
2.526252 
2.526784 
2.523500 
2.511439 
2.504421 
2.501029 
2.500493 
2.499616 
2.490040 
2.492576 
2.490989 
2.493685 
2.491443 
2.484744 
2.484037 
2.485640 
2.490545 
2.492741 
2.491438 
2.498012 
2.499785 
2.501074 
2.499247 
2.491930 
2.492303 
2.487678 
2.485992 
2.481289 
2.477823 
2.481931 
2.479485 
2.481712 
2.480506 
2.482563 
2.478494 
2.476987 
2.489183 
2.518891 
2.505953 
2.503632 
2.495820 
2.505879 
2.507082 
2.497575 
2.488611 
2.485196 
2.478644 
2.465780 
2.470628 
2.470064 
2.462428 
2.465041 
2.470692 
2.475895 
2.482414 
2.487868 
2.489773 
2.490008 
2.492641 
2.496752 
2.499250 
2.506067 
2.514068 
2.514170 
2.524933 
2.519877 
2.518978 
2.518544 
2.508094 
2.499814 
2.496413 
2.491264 
2.488677 
2.485775 
2.482411 
2.478929 
2.472801 
2.466296 
2.463952 
2.462370 
2.458887 
2.460367 
2.455573 
2.458079 
2.460429 
2.453621 
2.449087 
2.449343 
2.449929 
2.449861 
2.454407 
2.452223 
2.452402 
2.467183 
2.462159 
2.450857 
2.453557 
2.452371 
2.451075 
2.450143 
2.444870 
2.449369 
2.463008 
2.455137 
2.467677 
2.487618 
2.465222 
2.458499 
2.448580 
2.457720 
2.467081 
2.484381 
2.491281 
2.498829 
2.507843 
2.517215 
2.515150 
2.515275 
2.518383 
2.514474 
2.512775 
2.510970 
2.509154 
2.508146 
2.502855 
2.494991 
2.489044 
2.487766 
2.491098 
2.492042 
2.494655 
2.499481 
2.502167 
2.501722 
2.507432 
2.505724 
2.503072 
2.505778 
2.501031 
2.495834 
2.486873 
2.488196 
2.490311 
2.497454 
2.493691 
2.493489 
2.491901 
2.496097 
2.493599 
2.497907 
2.500147 
2.500178 
2.489839 
2.485935 
2.492380 
2.496136 
2.493144 
2.494843 
2.501843 
2.502530 
2.505200 
2.501629 
2.502660 
2.501427 
2.496539 
2.504548 
2.498883 
2.492489 
2.490636 
2.491441 
2.499148 
2.495877 
2.493959 
2.491901 
2.493267 
2.493427 
2.495417 
2.499211 
2.501876 
2.492999 
2.480105 
2.479469 
2.475177 
2.476231 
2.470014 
2.466563 
2.464860 
2.468218 
2.472242 
2.471378 
2.486339 
2.510331 
2.523621 
2.517037 
2.492773 
2.478769 
2.470458 
2.464421 
2.456095 
2.457841 
2.467319 
2.485398 
2.491630 
2.496391 
2.495889 
2.489048 
2.487778 
2.488771 
2.485661 
2.479167 
2.481698 
2.482947 
2.470265 
2.471412 
2.474064 
2.478102 
2.488916 
2.495138 
2.492038 
2.479225 
2.480759 
2.471462 
2.464512 
2.466311 
2.487450 
2.499903 
2.488186 
2.478505 
2.472132 
2.475061 
2.465075 
2.464220 
2.467579 
2.466975 
2.460739 
2.458010 
2.457213 
2.456270 
2.454071 
2.449076 
2.453850 
2.459130 
2.485694 
2.488956 
2.495213 
2.507489 
2.502077 
2.483840 
2.473746 
2.472651 
2.475390 
2.477157 
2.471986 
2.469569 
2.467322 
2.466885 
2.461339 
2.469877 
2.486493 
2.482845 
2.479174 
2.477002 
2.474768 
2.486085 
2.530521 
2.513372 
2.489625 
2.469423 
2.459756 
2.460531 
2.459332 
2.461889 
2.465057 
2.464596 
2.463251 
2.466725 
2.468193 
2.471759 
2.474708 
2.475880 
2.481295 
2.491165 
2.486342 
2.485089 
2.479791 
2.479301 
2.476795 
2.469102 
2.465695 
2.469063 
2.469262 
2.462379 
2.470529 
2.470407 
2.469286 
2.471177 
2.468390 
2.468600 
2.469450 
2.464006 
2.468098 
2.474264 
2.475860 
2.478601 
2.476160 
2.474803 
2.478737 
2.481256 
2.481118 
2.487964 
2.487865 
2.486015 
2.487183 
2.483499 
2.495505 
2.504339 
2.508649 
2.504467 
2.498126 
2.494790 
2.495113 
2.492426 
2.486801 
2.490106 
2.483423 
2.485606 
2.488050 
2.487642 
2.486036 
2.484158 
2.477039 
2.482322 
2.490013 
2.488452 
2.493438 
2.486556 
2.489940 
2.492150 
2.483735 
2.482843 
2.475469 
2.480996 
2.488506 
2.485089 
2.488859 
2.489573 
2.482686 
2.481600 
2.480303 
2.477257 
2.478106 
2.517820 
2.535265 
2.555996 
2.552220 
2.542018 
2.529147 
2.498492 
2.490315 
2.482889 
2.476714 
2.474362 
2.473940 
2.474099 
2.467430 
2.475326 
2.476288 
2.471772 
2.473413 
2.470822 
2.471745 
2.480774 
2.482757 
2.488331 
2.490220 
2.494840 
2.496460 
2.494388 
2.497588 
2.498622 
2.495707 
2.498995 
2.499653 
2.498602 
2.494586 
2.492799 
2.495385 
2.493389 
2.492425 
2.497972 
2.493849 
2.497159 
2.491421 
2.487038 
2.483774 
2.475011 
2.473960 
2.479131 
2.484462 
2.479520 
2.481841 
2.488524 
2.492991 
2.505721 
2.517009 
2.510948 
2.509229 
2.498993 
2.497899 
2.497854 
2.495748 
2.489537 
2.488361 
2.489610 
2.488500 
2.480174 
2.487971 
2.497657 
2.494992 
2.482912 
2.487337 
2.487863 
2.485368 
2.491388 
2.492273 
2.487878 
2.488659 
2.488085 
2.490755 
2.489123 
2.483794 
2.484230 
2.488882 
2.492963 
2.486411 
2.487008 
2.485617 
2.480617 
2.481229 
2.477261 
2.478315 
2.478809 
2.480277 
2.483694 
2.478350 
2.483294 
2.484410 
2.484354 
2.487808 
2.494234 
2.497968 
2.497973 
2.512090 
2.514002 
2.514982 
2.512898 
2.517647 
2.530114 
2.537916 
2.542638 
2.543165 
2.540446 
2.539181 
2.535825 
2.540677 
2.539743 
2.533488 
2.538925 
2.542454 
2.537982 
2.532411 
2.533967 
2.538698 
2.531086 
2.535418 
2.542635 
2.546166 
2.546717 
2.542462 
2.541157 
2.526231 
2.527469 
2.534983 
2.546195 
2.554131 
2.559390 
2.560006 
2.565925 
2.569627 
2.573692 
2.568153 
2.576081 
2.585025 
2.593564 
2.595394 
2.589397 
2.585710 
2.584246 
2.584230 
2.584908 
2.591174 
2.594302 
2.591311 
2.588175 
2.584573 
2.577727 
2.571636 
2.575173 
2.580017 
2.578982 
2.574235 
2.573120 
2.572831 
2.572814 
2.570234 
2.567493 
2.564073 
2.571772 
2.575328 
2.572629 
2.564636 
2.576243 
2.570465 
2.568808 
2.556372 
2.548418 
2.549526 
2.543209 
2.545944 
2.544908 
2.545052 
2.538019 
2.535632 
2.529994 
2.530229 
2.529509 
2.539768 
2.552126 
2.559521 
2.556611 
2.562843 
2.563282 
2.571432 
2.569191 
2.565161 
2.561313 
2.555627 
2.555963 
2.546081 
2.549021 
2.558029 
2.557570 
2.548443 
2.550687 
2.551878 
2.558199 
2.563023 
2.566533 
2.563998 
2.561152 
2.562410 
2.552698 
2.548420 
2.539636 
2.520138 
2.508374 
2.499874 
2.492452 
2.495918 
2.491376 
2.493363 
2.491809 
2.496276 
2.495759 
2.497902 
2.495987 
2.494241 
2.492957 
2.491901 
2.498041 
2.495522 
2.493814 
2.498287 
2.493241 
2.489501 
2.487306 
2.489965 
2.491956 
2.504236 
2.501251 
2.503151 
2.504418 
2.512318 
2.536207 
2.553154 
2.559882 
2.570578 
2.565997 
2.568776 
2.561819 
2.562022 
2.560466 
2.558368 
2.560109 
2.555006 
2.549378 
2.551389 
2.548686 
2.553701 
2.557266 
2.557330 
2.553135 
2.551245 
2.547792 
2.548483 
2.548126 
2.550496 
2.550490 
2.543859 
2.536668 
2.540328 
2.544437 
2.541086 
2.537055 
2.537009 
2.539697 
2.533568 
2.535671 
2.533318 
2.534547 
2.524137 
2.526464 
2.525865 
2.532496 
2.537165 
2.531555 
2.534804 
2.530082 
2.526401 
2.522049 
2.524673 
2.526529 
2.526969 
2.525551 
2.528586 
2.523008 
2.519457 
2.523656 
2.528933 
2.525982 
2.523537 
2.516923 
2.514745 
2.508727 
2.510629 
2.510168 
2.505638 
2.502610 
2.503640 
2.502999 
2.505060 
2.507629 
2.506922 
2.507552 
2.503391 
2.508431 
2.510396 
2.513195 
2.509625 
2.510782 
2.511836 
2.507057 
2.504512 
2.505575 
2.502184 
2.503765 
2.507642 
2.508797 
2.515593 
2.516693 
2.528822 
2.542617 
2.543888 
2.546491 
2.529750 
2.515231 
2.514974 
2.513316 
2.522249 
2.523196 
2.526962 
2.527796 
2.526671 
2.522061 
2.526302 
2.527738 
2.528586 
2.528710 
2.528266 
2.528431 
2.525077 
2.524999 
2.525229 
2.521143 
2.524767 
2.531949 
2.527287 
2.523435 
2.521573 
2.524106 
2.515982 
2.514077 
2.512806 
2.512835 
2.517018 
2.525425 
2.529608 
2.534376 
2.539669 
2.542096 
2.547537 
2.543235 
2.544623 
2.550701 
2.546197 
2.554397 
2.553131 
2.547969 
2.554655 
2.556289 
2.558582 
2.556608 
2.540007 
2.530364 
2.535790 
2.531864 
2.529475 
2.523753 
2.527778 
2.523921 
2.517302 
2.517311 
2.533697 
2.529845 
2.532136 
2.530381 
2.522575 
2.522430 
2.525946 
2.517428 
2.518889 
2.527108 
2.519312 
2.514128 
2.519793 
2.515878 
2.511781 
2.506447 
2.504991 
2.508754 
2.509547 
2.504274 
2.517342 
2.516097 
2.509143 
2.511725 
2.513389 
2.509946 
2.514392 
2.521901 
2.533254 
2.533317 
2.530126 
2.528370 
2.531704 
2.523833 
2.518534 
2.521827 
2.519067 
2.514566 
2.517143 
2.518832 
2.518660 
2.515367 
2.509286 
2.512120 
2.514080 
2.516904 
2.509066 
2.524264 
2.519385 
2.533751 
2.540376 
2.539858 
2.538267 
2.535730 
2.531669 
2.527764 
2.527754 
2.528391 
2.534728 
2.540898 
2.541971 
2.546828 
2.538293 
2.534096 
2.533040 
2.541969 
2.539883 
2.535828 
2.535945 
2.531862 
2.519782 
2.519386 
2.518791 
2.520930 
2.520884 
2.522266 
2.513143 
2.509666 
2.511870 
2.511614 
2.506573 
2.516603 
2.522839 
2.520468 
2.515000 
2.519688 
2.524891 
2.526070 
2.526850 
2.521825 
2.518220 
2.519751 
2.509608 
2.511699 
2.517638 
2.522582 
2.514525 
2.512265 
2.518364 
2.520335 
2.519209 
2.526031 
2.529807 
2.538952 
2.530349 
2.524757 
2.525921 
2.531122 
2.532307 
2.523415 
2.513260 
2.512552 
2.515751 
2.521180 
2.515846 
2.518575 
2.518505 
2.519486 
2.524167 
2.526376 
2.528424 
2.532038 
2.525285 
2.525850 
2.526292 
2.525521 
2.534841 
2.527812 
2.527007 
2.524695 
2.523447 
2.523656 
2.521142 
2.520766 
2.526024 
2.528717 
2.535167 
2.535231 
2.528889 
2.527806 
2.522951 
2.517464 
2.512058 
2.520100 
2.522164 
2.512271 
2.515781 
2.526600 
2.533958 
2.531196 
2.514219 
2.518180 
2.533756 
2.539664 
2.533997 
2.535526 
2.531968 
2.536026 
2.530187 
2.524572 
2.532594 
2.532341 
2.524716 
2.536053 
2.539724 
2.538789 
2.541859 
2.543008 
2.534212 
2.541018 
2.546798 
2.548886 
2.539256 
2.537695 
2.537173 
2.532005 
2.534544 
2.529539 
2.531684 
2.527677 
2.529555 
2.534513 
2.538286 
2.537857 
2.538168 
2.531993 
2.534323 
2.523014 
2.509434 
2.517279 
2.525597 
2.523387 
2.525405 
2.529880 
2.525910 
2.526441 
2.528440 
2.513306 
2.503274 
2.515348 
2.512065 
2.516579 
2.516971 
2.512766 
2.507717 
2.517827 
2.518294 
2.516817 
2.519573 
2.523907 
2.523983 
2.519597 
2.517391 
2.519822 
2.533666 
2.528329 
2.518005 
2.529642 
2.541174 
2.527893 
2.523732 
2.528871 
2.531792 
2.520446 
2.519134 
2.522790 
2.520173 
2.521882 
2.517386 
2.526222 
2.535376 
2.540714 
2.542896 
2.553964 
2.565782 
2.566993 
2.568410 
2.569733 
2.571021 
2.564273 
2.557394 
2.553963 
2.552705 
2.540451 
2.537019 
2.537739 
2.531098 
2.516327 
2.520732 
2.521241 
2.513066 
2.509061 
2.511932 
2.507191 
2.519345 
2.533731 
2.535748 
2.526281 
2.530022 
2.531809 
2.531384 
2.523496 
2.519681 
2.510679 
2.507610 
2.509620 
2.511129 
2.501789 
2.507159 
2.514282 
2.508992 
2.508491 
2.507523 
2.503937 
2.495646 
2.509295 
2.506067 
2.512684 
2.511702 
2.525344 
2.528583 
2.524437 
2.525513 
2.530431 
2.525587 
2.519693 
2.551595 
2.574518 
2.569315 
2.551800 
2.546393 
2.546577 
2.533415 
2.532356 
2.537123 
2.530645 
2.525162 
2.527145 
2.520368 
2.522293 
2.516983 
2.510935 
2.492522 
2.499812 
2.506589 
2.486751 
2.489120 
2.494510 
2.492380 
2.496017 
2.500859 
2.502503 
2.495532 
2.492147 
2.494406 
2.493208 
2.495057 
2.496850 
2.516389 
2.528721 
2.524438 
2.518600 
2.515184 
2.511743 
2.515589 
2.508262 
2.505297 
2.510209 
2.511987 
2.495558 
2.493224 
2.502582 
2.505139 
2.481308 
2.498924 
2.504977 
2.498346 
2.498146 
2.507249 
2.508034 
2.506022 
2.502883 
2.506394 
2.510931 
2.505841 
2.505305 
2.507485 
2.504482 
2.503234 
2.502775 
2.503231 
2.499793 
2.491132 
2.497859 
2.491237 
2.482863 
2.476212 
2.488485 
2.488041 
2.481611 
2.489885 
2.492416 
2.488573 
2.481578 
2.492380 
2.497889 
2.497347 
2.494241 
2.495633 
2.497966 
2.504540 
2.509278 
2.507202 
2.504900 
2.492612 
2.496741 
2.493897 
2.484729 
2.494624 
2.495578 
2.484904 
2.487828 
2.490228 
2.485661 
2.487817 
2.490849 
2.497035 
2.492705 
2.490013 
2.499000 
2.504857 
2.511990 
2.522795 
2.515514 
2.513215 
2.513546 
2.531959 
2.534013 
2.522714 
2.513021 
2.507442 
2.502517 
2.502609 
2.505335 
2.505098 
2.501458 
2.507032 
2.501447 
2.497633 
2.503157 
2.500229 
2.510178 
2.514936 
2.511283 
2.507240 
2.505393 
2.503609 
2.504159 
2.506683 
2.506208 
2.500964 
2.500783 
2.493825 
2.492180 
2.492515 
2.488027 
2.487588 
2.493521 
2.504490 
2.493149 
2.488426 
2.489902 
2.494093 
2.488038 
2.484368 
2.485467 
2.491330 
2.491607 
2.490003 
2.485505 
2.493332 
2.491216 
2.486648 
2.483052 
2.485833 
2.479104 
2.480159 
2.479532 
2.478497 
2.485494 
2.489358 
2.499005 
2.498248 
2.492592 
2.498317 
2.490260 
2.480723 
2.481747 
2.475218 
2.472671 
2.471291 
2.478874 
2.482163 
2.483061 
2.482209 
2.477213 
2.483693 
2.479102 
2.496232 
2.500765 
2.500463 
2.498522 
2.500530 
2.514664 
2.521624 
2.508668 
2.509397 
2.506650 
2.506537 
2.515134 
2.529057 
2.529961 
2.539148 
2.540850 
2.541118 
2.550343 
2.566122 
2.577543 
2.584069 
2.582373 
2.584572 
2.590462 
2.573691 
2.571727 
2.558504 
2.550146 
2.563437 
2.564929 
2.560125 
2.561289 
2.559919 
2.558380 
2.556727 
2.555384 
2.552183 
2.548668 
2.552717 
2.542929 
2.549152 
2.551765 
2.546047 
2.546002 
2.540583 
2.535573 
2.539389 
2.550758 
2.544751 
2.547146 
2.556852 
2.553673 
2.551413 
2.552297 
2.553428 
2.555016 
2.546937 
2.542765 
2.541993 
2.535558 
2.534311 
2.531982 
2.526803 
2.536162 
2.537324 
2.537474 
2.541040 
2.546473 
2.535507 
2.543688 
2.539887 
2.540836 
2.546938 
2.547536 
2.548644 
2.561958 
2.552856 
2.558098 
2.555902 
2.545586 
2.557650 
2.557784 
2.556994 
2.551851 
2.553606 
2.548931 
2.531682 
2.539526 
2.547693 
2.538120 
2.545176 
2.547075 
2.546400 
2.546780 
2.536939 
2.513741 
2.500825 
2.488751 
2.485469 
2.485335 
2.488722 
2.490601 
2.485697 
2.479063 
2.489148 
2.485618 
2.482407 
2.492548 
2.491194 
2.484761 
2.482504 
2.495477 
2.485453 
2.485935 
2.502908 
2.497992 
2.513303 
2.521423 
2.538402 
2.533664 
2.533137 
2.550563 
2.623157 
2.643147 
2.653788 
2.663330 
2.657279 
2.660112 
2.660990 
2.668070 
2.681302 
2.686934 
2.680053 
2.665987 
2.649265 
2.633771 
2.628043 
2.621453 
2.605680 
2.600011 
2.593067 
2.586920 
2.588161 
2.580622 
2.565221 
2.564760 
2.558458 
2.542186 
2.530191 
2.518034 
2.506985 
2.502899 
2.500862 
2.492359 
2.486558 
2.488509 
2.487683 
2.479958 
2.479447 
2.490862 
2.490167 
2.496180 
2.493907 
2.486180 
2.479681 
2.474102 
2.480586 
2.490359 
2.492333 
2.507761 
2.526859 
2.530429 
2.532655 
2.520878 
2.511905 
2.517540 
2.529637 
2.529197 
2.531767 
2.532008 
2.534576 
2.539360 
2.543000 
2.542455 
2.545523 
2.542053 
2.538669 
2.542884 
2.544221 
2.544944 
2.550691 
2.547815 
2.545177 
2.542550 
2.537251 
2.542570 
2.540076 
2.542858 
2.535677 
2.525308 
2.532829 
2.529229 
2.522704 
2.521206 
2.519649 
2.514308 
2.517544 
2.528109 
2.524532 
2.529084 
2.527926 
2.529491 
2.528465 
2.524064 
2.523335 
2.530272 
2.520007 
2.523404 
2.517327 
2.513419 
2.520381 
2.520528 
2.519605 
2.516752 
2.515888 
2.517712 
2.526238 
2.518189 
2.525523 
2.524920 
2.521507 
2.524596 
2.527809 
2.530019 
2.528222 
2.529414 
2.529534 
2.527143 
2.531655 
2.531244 
2.532555 
2.535139 
2.541780 
2.539846 
2.534610 
2.536140 
2.545668 
2.531625 
2.528250 
2.528000 
2.528319 
2.518257 
2.520484 
2.517763 
2.521439 
2.523097 
2.525164 
2.522560 
2.531071 
2.534569 
2.528982 
2.529455 
2.525809 
2.525062 
2.520783 
2.522314 
2.512994 
2.515511 
2.511997 
2.513036 
2.510451 
2.512875 
2.506052 
2.504554 
2.503758 
2.497277 
2.491879 
2.495811 
2.502211 
2.511107 
2.525751 
2.536815 
2.541743 
2.543321 
2.540421 
2.533219 
2.521324 
2.522247 
2.521432 
2.519946 
2.517620 
2.523761 
2.521363 
2.520366 
2.527181 
2.532282 
2.530056 
2.528445 
2.529060 
2.525317 
2.526203 
2.526930 
2.523140 
2.519818 
2.515208 
2.510474 
2.516501 
2.513635 
2.522033 
2.523903 
2.519758 
2.519118 
2.523307 
2.521829 
2.520613 
2.521678 
2.526834 
2.520368 
2.532221 
2.530666 
2.525996 
2.521525 
2.523097 
2.525643 
2.520726 
2.518376 
2.516584 
2.522129 
2.516660 
2.519271 
2.520830 
2.514581 
2.518342 
2.517090 
2.520611 
2.524971 
2.522601 
2.518238 
2.525379 
2.517224 
2.517711 
2.525582 
2.529712 
2.534442 
2.523327 
2.512284 
2.515647 
2.505134 
2.506894 
2.509108 
2.507915 
2.503021 
2.501918 
2.498416 
2.498373 
2.504414 
2.508423 
2.505095 
2.515251 
2.510683 
2.512419 
2.515091 
2.509971 
2.510097 
2.501192 
2.499691 
2.502319 
2.495633 
2.498357 
2.495973 
2.502549 
2.503370 
2.500218 
2.500450 
2.492870 
2.502740 
2.501650 
2.503109 
2.510460 
2.507042 
2.508500 
2.509867 
2.517518 
2.523888 
2.529673 
2.527805 
2.527733 
2.528535 
2.523740 
2.523951 
2.524454 
2.527221 
2.524404 
2.521228 
2.526784 
2.523020 
2.521550 
2.514747 
2.520797 
2.518787 
2.517919 
2.520642 
2.520125 
2.519246 
2.518071 
2.519974 
2.518071 
2.518705 
2.522825 
2.525426 
2.516519 
2.512802 
2.517355 
2.519328 
2.514796 
2.516394 
2.515938 
2.510670 
2.513601 
2.514450 
2.503318 
2.510176 
2.514130 
2.514458 
2.515786 
2.512752 
2.516383 
2.515480 
2.515410 
2.513640 
2.514266 
2.518214 
2.514056 
2.505832 
2.506729 
2.505326 
2.511200 
2.505592 
2.512159 
2.520123 
2.512275 
2.519188 
2.522151 
2.523551 
2.515462 
2.518897 
2.522493 
2.522561 
2.530775 
2.538656 
2.542373 
2.544838 
2.542837 
2.542279 
2.543539 
2.544269 
2.538796 
2.538295 
2.538395 
2.542285 
2.534540 
2.531231 
2.539594 
2.535542 
2.528457 
2.530043 
2.527946 
2.525904 
2.522575 
2.522210 
2.523803 
2.523981 
2.514838 
2.513743 
2.510620 
2.515567 
2.513165 
2.532198 
2.536338 
2.538806 
2.540142 
2.546742 
2.544999 
2.547434 
2.546663 
2.557654 
2.560038 
2.565221 
2.566357 
2.564397 
2.571355 
2.566351 
2.563419 
2.561642 
2.558393 
2.561189 
2.568027 
2.561101 
2.560814 
2.562713 
2.553393 
2.558150 
2.561972 
2.560466 
2.558041 
2.553593 
2.545776 
2.543548 
2.536408 
2.538715 
2.539196 
2.520152 
2.526385 
2.525104 
2.520136 
2.522068 
2.519875 
2.515783 
2.518457 
2.521045 
2.525658 
2.528639 
2.524516 
2.520676 
2.520939 
2.520445 
2.520497 
2.521133 
2.526412 
2.532501 
2.528589 
2.529374 
2.526593 
2.523454 
2.526529 
2.520510 
2.521528 
2.530264 
2.528025 
2.524101 
2.523525 
2.516937 
2.516595 
2.519526 
2.526663 
2.522227 
2.523450 
2.521645 
2.521931 
2.526524 
2.523341 
2.521109 
2.522315 
2.514759 
2.510701 
2.514059 
2.510907 
2.516112 
2.516994 
2.520161 
2.527380 
2.525491 
2.522704 
2.519191 
2.526608 
2.526457 
2.525515 
2.530464 
2.510402 
2.507876 
2.512306 
2.506923 
2.510402 
2.512467 
2.517825 
2.529041 
2.527723 
2.530683 
2.538678 
2.541787 
2.540346 
2.545825 
2.549859 
2.546294 
2.552296 
2.560377 
2.556389 
2.552818 
2.557253 
2.551250 
2.553740 
2.552482 
2.549741 
2.552632 
2.553468 
2.552376 
2.552111 
2.552692 
2.550598 
2.549369 
2.550052 
2.554023 
2.553857 
2.547546 
2.551324 
2.546476 
2.549858 
2.552631 
2.564156 
2.566311 
2.564460 
2.558743 
2.566426 
2.567519 
2.571376 
2.572824 
2.578419 
2.575713 
2.564022 
2.559258 
2.562197 
2.556220 
2.550540 
2.551316 
2.552312 
2.546311 
2.536205 
2.546265 
2.549447 
2.565196 
2.557127 
2.548205 
2.539579 
2.539172 
2.535917 
2.540253 
2.539839 
2.539905 
2.543596 
2.549490 
2.551185 
2.547278 
2.539545 
2.534610 
2.532565 
2.530604 
2.531848 
2.524737 
2.529066 
2.538944 
2.545236 
2.544137 
2.547280 
2.548984 
2.540904 
2.536760 
2.525946 
2.524543 
2.525649 
2.521339 
2.510574 
2.508486 
2.511209 
2.506908 
2.508686 
2.502204 
2.511619 
2.519061 
2.521536 
2.518747 
2.516161 
2.518409 
2.521922 
2.518793 
2.518257 
2.518257 
2.517494 
2.519050 
2.524138 
2.513498 
2.522458 
2.520253 
2.516606 
2.513388 
2.518651 
2.520582 
2.521110 
2.523434 
2.525883 
2.517157 
2.514420 
2.514664 
2.524673 
2.521240 
2.513122 
2.520071 
2.522362 
2.523397 
2.525628 
2.526673 
2.517791 
2.512203 
2.515407 
2.505099 
2.504031 
2.509027 
2.504284 
2.499895 
2.502168 
2.500093 
2.504122 
2.516061 
2.517064 
2.518394 
2.518386 
2.522417 
2.519141 
2.514515 
2.518269 
2.536660 
2.567506 
2.586167 
2.593614 
2.594441 
2.592897 
2.591650 
2.592288 
2.583674 
2.573178 
2.578756 
2.579269 
2.578084 
2.568204 
2.561736 
2.558845 
2.557687 
2.554209 
2.548825 
2.549245 
2.550390 
2.547378 
2.546539 
2.546537 
2.541447 
2.536070 
2.532057 
2.537341 
2.540393 
2.539296 
2.541057 
2.548092 
2.551386 
2.551325 
2.538000 
2.544558 
2.539158 
2.538235 
2.535727 
2.536140 
2.533455 
2.526642 
2.531734 
2.526910 
2.542421 
2.541474 
2.558870 
2.561131 
2.565901 
2.567921 
2.578034 
2.588214 
2.575434 
2.575941 
2.577212 
2.581877 
2.582579 
2.586324 
2.589094 
2.584445 
2.566919 
2.556135 
2.551481 
2.549572 
2.555864 
2.551706 
2.546549 
2.543022 
2.542508 
2.542289 
2.540989 
2.537863 
2.535443 
2.537278 
2.538888 
2.547148 
2.551092 
2.552254 
2.566130 
2.566228 
2.560752 
2.562431 
2.564945 
2.567540 
2.568915 
2.563682 
2.557142 
2.563102 
2.555800 
2.559057 
2.554416 
2.560119 
2.562911 
2.564290 
2.557768 
2.558096 
2.557211 
2.556628 
2.559165 
2.552983 
2.548168 
2.540367 
2.532627 
2.544130 
2.547012 
2.539361 
2.536392 
2.532851 
2.517250 
2.515631 
2.512451 
2.498287 
2.500597 
2.499549 
2.507626 
2.509204 
2.511123 
2.510877 
2.507855 
2.509213 
2.509352 
2.507838 
2.503702 
2.507441 
2.503963 
2.511714 
2.508596 
2.508947 
2.510308 
2.512909 
2.519612 
2.516512 
2.517785 
2.510918 
2.509518 
2.504695 
2.503684 
2.529928 
2.539858 
2.554233 
2.563011 
2.564245 
2.568254 
2.570123 
2.564489 
2.578693 
2.581083 
2.579308 
2.579945 
2.574242 
2.571144 
2.567371 
2.563890 
2.562782 
2.563874 
2.562685 
2.558834 
2.560164 
2.560663 
2.568419 
2.567219 
2.563541 
2.563696 
2.569916 
2.574072 
2.578315 
2.572061 
2.567294 
2.565935 
2.563467 
2.568646 
2.570178 
2.563146 
2.564717 
2.571764 
2.574171 
2.574296 
2.577445 
2.575853 
2.573664 
2.573887 
2.569877 
2.564126 
2.564857 
2.573266 
2.575698 
2.565380 
2.552625 
2.553128 
2.551563 
2.546035 
2.544606 
2.533270 
2.532493 
2.531211 
2.529678 
2.527229 
2.541691 
2.549114 
2.552061 
2.554931 
2.558151 
2.562113 
2.568684 
2.573094 
2.584314 
2.593595 
2.599716 
2.608031 
2.631168 
2.618780 
2.612595 
2.612523 
2.612258 
2.604549 
2.591919 
2.591079 
2.588166 
2.586703 
2.598497 
2.595168 
2.591060 
2.588587 
2.581013 
2.581093 
2.578739 
2.572584 
2.574702 
2.562963 
2.566891 
2.562001 
2.554690 
2.560746 
2.552901 
2.550814 
2.554267 
2.553749 
2.554014 
2.552006 
2.551460 
2.550597 
2.547610 
2.543299 
2.547869 
2.543014 
2.544747 
2.546473 
2.545556 
2.538906 
2.541135 
2.541419 
2.544797 
2.541325 
2.542883 
2.547952 
2.546699 
2.549461 
2.543159 
2.537806 
2.529979 
2.530849 
2.528661 
2.529635 
2.524968 
2.529632 
2.531369 
2.533753 
2.540929 
2.545468 
2.545218 
2.547659 
2.547327 
2.548593 
2.545726 
2.551021 
2.545825 
2.548976 
2.550697 
2.555203 
2.551020 
2.544442 
2.532689 
2.525533 
2.536191 
2.530144 
2.527581 
2.525518 
2.526345 
2.523015 
2.523115 
2.524586 
2.513363 
2.519810 
2.515227 
2.515206 
2.515310 
2.512125 
2.517630 
2.523232 
2.523737 
2.524613 
2.522651 
2.522545 
2.535940 
2.543051 
2.541418 
2.540507 
2.546017 
2.539327 
2.532083 
2.538228 
2.530899 
2.533583 
2.533036 
2.539712 
2.533718 
2.527876 
2.524428 
2.528594 
2.526421 
2.522969 
2.523496 
2.527508 
2.535774 
2.534488 
2.527285 
2.523954 
2.529084 
2.527328 
2.524486 
2.517898 
2.514259 
2.521456 
2.521861 
2.518223 
2.517563 
2.525901 
2.520388 
2.521993 
2.520060 
2.519028 
2.513481 
2.514707 
2.505601 
2.501910 
2.506607 
2.500570 
2.498398 
2.500821 
2.494172 
2.498633 
2.571094 
2.661375 
2.686439 
2.692351 
2.683591 
2.680733 
2.673543 
2.666322 
2.657594 
2.650474 
2.646516 
2.645181 
2.637041 
2.626221 
2.618699 
2.613574 
2.607307 
2.604513 
2.598344 
2.594586 
2.590956 
2.587061 
2.584182 
2.585456 
2.587963 
2.587428 
2.579152 
2.579951 
2.579952 
2.572250 
2.569632 
2.563810 
2.564329 
2.561310 
2.561580 
2.558124 
2.553137 
2.548371 
2.549781 
2.547105 
2.546404 
2.544805 
2.551297 
2.555749 
2.559446 
2.556636 
2.549892 
2.543378 
2.534734 
2.537420 
2.541934 
2.546917 
2.549113 
2.549025 
2.547029 
2.549542 
2.552630 
2.547099 
2.542853 
2.542183 
2.545177 
2.541928 
2.541022 
2.538259 
2.536295 
2.534212 
2.526788 
2.527484 
2.529851 
2.530225 
2.539296 
2.544370 
2.540918 
2.534839 
2.540178 
2.540754 
2.537294 
2.535815 
2.535189 
2.533277 
2.535336 
2.535036 
2.532051 
2.527437 
2.520873 
2.521397 
2.518395 
2.525100 
2.527835 
2.525373 
2.523352 
2.518918 
2.513225 
2.509537 
2.510705 
2.514124 
2.515000 
2.509958 
2.515065 
2.516276 
2.517423 
2.512654 
2.507523 
2.504755 
2.506279 
2.508631 
2.508631 
2.511887 
2.511828 
2.513338 
2.519164 
2.519346 
2.517492 
2.520158 
2.521469 
2.525709 
2.523168 
2.529692 
2.529504 
2.524615 
2.522024 
2.531097 
2.535480 
2.537159 
2.542822 
2.553266 
2.554018 
2.549775 
2.548375 
2.543885 
2.537989 
2.527398 
2.516273 
2.516439 
2.520797 
2.518714 
2.515764 
2.519845 
2.513190 
2.505452 
2.508025 
2.506632 
2.504540 
2.505174 
2.497970 
2.498582 
2.493345 
2.500919 
2.507070 
2.505498 
2.501144 
2.505754 
2.520569 
2.531018 
2.534372 
2.531719 
2.536443 
2.532950 
2.526612 
2.533357 
2.530364 
2.528723 
2.531889 
2.527069 
2.522430 
2.521432 
2.518558 
2.512373 
2.514483 
2.517439 
2.517503 
2.518101 
2.511892 
2.508986 
2.502788 
2.505851 
2.509337 
2.515232 
2.509152 
2.505872 
2.501670 
2.502028 
2.510836 
2.529718 
2.541401 
2.546147 
2.555115 
2.547061 
2.542831 
2.551873 
2.558085 
2.564258 
2.564456 
2.565496 
2.563977 
2.565171 
2.569331 
2.578177 
2.578991 
2.581284 
2.582215 
2.589221 
2.580535 
2.578686 
2.575196 
2.577410 
2.571126 
2.568218 
2.569845 
2.570925 
2.568123 
2.568612 
2.564103 
2.566590 
2.563275 
2.554633 
2.549409 
2.554465 
2.566361 
2.564755 
2.564579 
2.564219 
2.564255 
2.567117 
2.569273 
2.580766 
2.584980 
2.577116 
2.578922 
2.575755 
2.566052 
2.563917 
2.573154 
2.567365 
2.564508 
2.583587 
2.603084 
2.607992 
2.606530 
2.600120 
2.605377 
2.594686 
2.576166 
2.572493 
2.566391 
2.560488 
2.560194 
2.572356 
2.594201 
2.590348 
2.601132 
2.607061 
2.580257 
2.560441 
2.546547 
2.550891 
2.557044 
2.554967 
2.556983 
2.555252 
2.552801 
2.556603 
2.552331 
2.547659 
2.547945 
2.554477 
2.565311 
2.563467 
2.559191 
2.559509 
2.554439 
2.551032 
2.555056 
2.555519 
2.563029 
2.570723 
2.561291 
2.549159 
2.546107 
2.546150 
2.537870 
2.541613 
2.543867 
2.545565 
2.546635 
2.538715 
2.540584 
2.538549 
2.546323 
2.552161 
2.558780 
2.546614 
2.543991 
2.540068 
2.538639 
2.534122 
2.535302 
2.532626 
2.530104 
2.521454 
2.519413 
2.522393 
2.523618 
2.511571 
2.512567 
2.512069 
2.521812 
2.531077 
2.541440 
2.544260 
2.545516 
2.542671 
2.546888 
2.551200 
2.548641 
2.545762 
2.544784 
2.545420 
2.551722 
2.557751 
2.544571 
2.548058 
2.542283 
2.541877 
2.547746 
2.552318 
2.563052 
2.566552 
2.557669 
2.566832 
2.550301 
2.545257 
2.540595 
2.536578 
2.531169 
2.529118 
2.536029 
2.535158 
2.538768 
2.542781 
2.534781 
2.532847 
2.534074 
2.549401 
2.549923 
2.551892 
2.558402 
2.563950 
2.564674 
2.562148 
2.565076 
2.570403 
2.563648 
2.565089 
2.557479 
2.561146 
2.557670 
2.555202 
2.549367 
2.547816 
2.549073 
2.542587 
2.544529 
2.548670 
2.552750 
2.549500 
2.548683 
2.547860 
2.549070 
2.540782 
2.545121 
2.546710 
2.549876 
2.545492 
2.543378 
2.552347 
2.547746 
2.539113 
2.544419 
2.551516 
2.544180 
2.538030 
2.540377 
2.540457 
2.540838 
2.535667 
2.536143 
2.532974 
2.536973 
2.536217 
2.538893 
2.535101 
2.536006 
2.535871 
2.537225 
2.545311 
2.538986 
2.539360 
2.534363 
2.532667 
2.534273 
2.535134 
2.547397 
2.560139 
2.573621 
2.581158 
2.585257 
2.587931 
2.587291 
2.582446 
2.589033 
2.583391 
2.581161 
2.582055 
2.586640 
2.587322 
2.588127 
2.585451 
2.580069 
2.569501 
2.568713 
2.573126 
2.569036 
2.560878 
2.560713 
2.560360 
2.562339 
2.565717 
2.563139 
2.562879 
2.560303 
2.558170 
2.564569 
2.561693 
2.551512 
2.552220 
2.547029 
2.544696 
2.541736 
2.543702 
2.539084 
2.534679 
2.537891 
2.538545 
2.535482 
2.534274 
2.533687 
2.531760 
2.533496 
2.541556 
2.548696 
2.551312 
2.549306 
2.547863 
2.555228 
2.555767 
2.558818 
2.560445 
2.556011 
2.559579 
2.557159 
2.555980 
2.567287 
2.568503 
2.567669 
2.570585 
2.569631 
2.565257 
2.560223 
2.560017 
2.559712 
2.557785 
2.560920 
2.558828 
2.553399 
2.550388 
2.549720 
2.549023 
2.540204 
2.539360 
2.540852 
2.538761 
2.537189 
2.538715 
2.542983 
2.544242 
2.545279 
2.545016 
2.542025 
2.541690 
2.543666 
2.541784 
2.539908 
2.543217 
2.543996 
2.541156 
2.542262 
2.540258 
2.539820 
2.547063 
2.561551 
2.575879 
2.584533 
2.578355 
2.572338 
2.557235 
2.546114 
2.530425 
2.527778 
2.526988 
2.523344 
2.517840 
2.517564 
2.518899 
2.522151 
2.521820 
2.523876 
2.526354 
2.521829 
2.516905 
2.514402 
2.521635 
2.526788 
2.529441 
2.530756 
2.532059 
2.530184 
2.531615 
2.535827 
2.531988 
2.525669 
2.526803 
2.529400 
2.530234 
2.529866 
2.529266 
2.529591 
2.526802 
2.528617 
2.525687 
2.525007 
2.526529 
2.523570 
2.524434 
2.524119 
2.520575 
2.517623 
2.515578 
2.532035 
2.538289 
2.536490 
2.538243 
2.534653 
2.537961 
2.536009 
2.536954 
2.535661 
2.548912 
2.546917 
2.553143 
2.561683 
2.559675 
2.559519 
2.565025 
2.561746 
2.560061 
2.561458 
2.557439 
2.551338 
2.556008 
2.557585 
2.554372 
2.554840 
2.555845 
2.540834 
2.541691 
2.547549 
2.549506 
2.549368 
2.542381 
2.545966 
2.548369 
2.551671 
2.548546 
2.537540 
2.515565 
2.509055 
2.513442 
2.515264 
2.506423 
2.508604 
2.506956 
2.505736 
2.508451 
2.507523 
2.504173 
2.509054 
2.502958 
2.503986 
2.505214 
2.506020 
2.502069 
2.508851 
2.509477 
2.509516 
2.520538 
2.517605 
2.515616 
2.522930 
2.520797 
2.520797 
2.517041 
2.515192 
2.518215 
2.513443 
2.504425 
2.506687 
2.508132 
2.507446 
2.512073 
2.520612 
2.521046 
2.524869 
2.524028 
2.521148 
2.523248 
2.523457 
2.531110 
2.524510 
2.527505 
2.527167 
2.519198 
2.517813 
2.519540 
2.521701 
2.518883 
2.521007 
2.516662 
2.517258 
2.516835 
2.510804 
2.512333 
2.507303 
2.506187 
2.506452 
2.503219 
2.503756 
2.508043 
2.493370 
2.487208 
2.497456 
2.511307 
2.521827 
2.517720 
2.509110 
2.511149 
2.511427 
2.515235 
2.525763 
2.528070 
2.522402 
2.519933 
2.515055 
2.519711 
2.520002 
2.521030 
2.522523 
2.525595 
2.522704 
2.518924 
2.517548 
2.519460 
2.525633 
2.520876 
2.521995 
2.523163 
2.525427 
2.523559 
2.520828 
2.521049 
2.521049 
2.515746 
2.521146 
2.523250 
2.522646 
2.522114 
2.527266 
2.516754 
2.503944 
2.500319 
2.497262 
2.498245 
2.493349 
2.492354 
2.484829 
2.490265 
2.495739 
2.500188 
2.497969 
2.498247 
2.501315 
2.497226 
2.495928 
2.504554 
2.509820 
2.513235 
2.514189 
2.517879 
2.518465 
2.519536 
2.520690 
2.517629 
2.514577 
2.513536 
2.517735 
2.524071 
2.519837 
2.513111 
2.511106 
2.509165 
2.513053 
2.514701 
2.523472 
2.532531 
2.549141 
2.548278 
2.553434 
2.562105 
2.563180 
2.564760 
2.568493 
2.562444 
2.561216 
2.566047 
2.573213 
2.571985 
2.576557 
2.581514 
2.580818 
2.585395 
2.593311 
2.597193 
2.590567 
2.581796 
2.580175 
2.575343 
2.581328 
2.582125 
2.589038 
2.583859 
2.584649 
2.572560 
2.575337 
2.575685 
2.573720 
2.569279 
2.579703 
2.582631 
2.577726 
2.572198 
2.573763 
2.567392 
2.564832 
2.562437 
2.558418 
2.553242 
2.547907 
2.544861 
2.547744 
2.552323 
2.559663 
2.569104 
2.582122 
2.585512 
2.605950 
2.617478 
2.621053 
2.623367 
2.622058 
2.617132 
2.622278 
2.616360 
2.607673 
2.616728 
2.631486 
2.633205 
2.636940 
2.629439 
2.623554 
2.617805 
2.619885 
2.617801 
2.606471 
2.590672 
2.586329 
2.587586 
2.580707 
2.570615 
2.570038 
2.566583 
2.564032 
2.561684 
2.565584 
2.579996 
2.573642 
2.573006 
2.568126 
2.545380 
2.538541 
2.534539 
2.527985 
2.525091 
2.516212 
2.513538 
2.511558 
2.512848 
2.511656 
2.507984 
2.507523 
2.508430 
2.508509 
2.506226 
2.504387 
2.506264 
2.502117 
2.503869 
2.508916 
2.507311 
2.501686 
2.498349 
2.503767 
2.501712 
2.497211 
2.495811 
2.491236 
2.484943 
2.487074 
2.490889 
2.481393 
2.484408 
2.492258 
2.493451 
2.488911 
2.496493 
2.507381 
2.508437 
2.506966 
2.508526 
2.514387 
2.516413 
2.512201 
2.515565 
2.515667 
2.514685 
2.515229 
2.522341 
2.530035 
2.529475 
2.528725 
2.535479 
2.538163 
2.540808 
2.535816 
2.539956 
2.538321 
2.537368 
2.540242 
2.538218 
2.537463 
2.538905 
2.543076 
2.533185 
2.527072 
2.531175 
2.530122 
2.516510 
2.501682 
2.497643 
2.491500 
2.508499 
2.522550 
2.518128 
2.521681 
2.528613 
2.531002 
2.529274 
2.520171 
2.514776 
2.511634 
2.513977 
2.515299 
2.522536 
2.528249 
2.521607 
2.517596 
2.523043 
2.527972 
2.526376 
2.525275 
2.527281 
2.527396 
2.522101 
2.522986 
2.525630 
2.519143 
2.514411 
2.509448 
2.506163 
2.513384 
2.515971 
2.510631 
2.507163 
2.511445 
2.517293 
2.512326 
2.512177 
2.512163 
2.518110 
2.513789 
2.510168 
2.510508 
2.508011 
2.508973 
2.506868 
2.511938 
2.503029 
2.497068 
2.494847 
2.497502 
2.496040 
2.494803 
2.493812 
2.493530 
2.493542 
2.488995 
2.490012 
2.491742 
2.494808 
2.496477 
2.496414 
2.499244 
2.491950 
2.489255 
2.487349 
2.494702 
2.502408 
2.501699 
2.485914 
2.479944 
2.481137 
2.479287 
2.477825 
2.476373 
2.474483 
2.473226 
2.475415 
2.487970 
2.495459 
2.497164 
2.496416 
2.500220 
2.500991 
2.496879 
2.496879 
2.497051 
2.501297 
2.508542 
2.507074 
2.528676 
2.514611 
2.509216 
2.511490 
2.511210 
2.510908 
2.511301 
2.514274 
2.514698 
2.518257 
2.514810 
2.508992 
2.509505 
2.515785 
2.517623 
2.508652 
2.503690 
2.502093 
2.508837 
2.505096 
2.508339 
2.505289 
2.506857 
2.507718 
2.510176 
2.507181 
2.506693 
2.510194 
2.503672 
2.502340 
2.503752 
2.503306 
2.505125 
2.501977 
2.502530 
2.503398 
2.504246 
2.501522 
2.507190 
2.509624 
2.516694 
2.526857 
2.530214 
2.544767 
2.545357 
2.538198 
2.529777 
2.532010 
2.534994 
2.522627 
2.519079 
2.526926 
2.526771 
2.534517 
2.535172 
2.534236 
2.528496 
2.529464 
2.524856 
2.530782 
2.527880 
2.526038 
2.525722 
2.527570 
2.524224 
2.522068 
2.525469 
2.516580 
2.516670 
2.513275 
2.515375 
2.516901 
2.517623 
2.515464 
2.513984 
2.511130 
2.510653 
2.513818 
2.504761 
2.508704 
2.512162 
2.510078 
2.511038 
2.509393 
2.511345 
2.503184 
2.503642 
2.501256 
2.502805 
2.502018 
2.498669 
2.503446 
2.506452 
2.509735 
2.500521 
2.503446 
2.505087 
2.516833 
2.523794 
2.526460 
2.537489 
2.532727 
2.525228 
2.526597 
2.524751 
2.513130 
2.515879 
2.518863 
2.515459 
2.510462 
2.512471 
2.514790 
2.520700 
2.516028 
2.517344 
2.514859 
2.518717 
2.508838 
2.512473 
2.517043 
2.517443 
2.509968 
2.508477 
2.504759 
2.502880 
2.508215 
2.517312 
2.515360 
2.505618 
2.501740 
2.495878 
2.494388 
2.494669 
2.491938 
2.489710 
2.490555 
2.497428 
2.501170 
2.498756 
2.496741 
2.492327 
2.492707 
2.487323 
2.484791 
2.485182 
2.484812 
2.482808 
2.478728 
2.480112 
2.482359 
2.477741 
2.483661 
2.488079 
2.505176 
2.517172 
2.524030 
2.546732 
2.577153 
2.597166 
2.608169 
2.620470 
2.638950 
2.646379 
2.652383 
2.659097 
2.664566 
2.673463 
2.670578 
2.671361 
2.673301 
2.665284 
2.657324 
2.654190 
2.651404 
2.646608 
2.633644 
2.623730 
2.614744 
2.599545 
2.593193 
2.589032 
2.580522 
2.587836 
2.590712 
2.593781 
2.583237 
2.571889 
2.562041 
2.542764 
2.534014 
2.509217 
2.491192 
2.481487 
2.482564 
2.478132 
2.477102 
2.484704 
2.485183 
2.486518 
2.489235 
2.500416 
2.506224 
2.518693 
2.512790 
2.516841 
2.516455 
2.515817 
2.516359 
2.515787 
2.516794 
2.518257 
2.524798 
2.527872 
2.519737 
2.520866 
2.516514 
2.512745 
2.512406 
2.513522 
2.509725 
2.510950 
2.495113 
2.489402 
2.485029 
2.471067 
2.472463 
2.474718 
2.480748 
2.480752 
2.477062 
2.478929 
2.475858 
2.478074 
2.482622 
2.482375 
2.479814 
2.479766 
2.476652 
2.479109 
2.477123 
2.480176 
2.479952 
2.477701 
2.477057 
2.470339 
2.467658 
2.468960 
2.461453 
2.462610 
2.466000 
2.465676 
2.463005 
2.464902 
2.464415 
2.473052 
2.475695 
2.473066 
2.477682 
2.481727 
2.476886 
2.474243 
2.469150 
2.471934 
2.474892 
2.475919 
2.478325 
2.481048 
2.478926 
2.485148 
2.484733 
2.484117 
2.488230 
2.485895 
2.489369 
2.493260 
2.498290 
2.502022 
2.499306 
2.492326 
2.490690 
2.496638 
2.495499 
2.495759 
2.492892 
2.492670 
2.491877 
2.494617 
2.483042 
2.480694 
2.481650 
2.478535 
2.476518 
2.480912 
2.475159 
2.478041 
2.482866 
2.471996 
2.478620 
2.479733 
2.480880 
2.481995 
2.479098 
2.482204 
2.480535 
2.489745 
2.486397 
2.483740 
2.488294 
2.489343 
2.488769 
2.487835 
2.486153 
2.480658 
2.483847 
2.488275 
2.499384 
2.507292 
2.511460 
2.513696 
2.536061 
2.558815 
2.559035 
2.561737 
2.577028 
2.628655 
2.642669 
2.637849 
2.633298 
2.630831 
2.635540 
2.628667 
2.618034 
2.604809 
2.592459 
2.578391 
2.589731 
2.610205 
2.613317 
2.615471 
2.607808 
2.602788 
2.592938 
2.592866 
2.600072 
2.587463 
2.593381 
2.584468 
2.580277 
2.583312 
2.579527 
2.576490 
2.575678 
2.563862 
2.559877 
2.559545 
2.555600 
2.547584 
2.547017 
2.543611 
2.544156 
2.536572 
2.525151 
2.515197 
2.518027 
2.513571 
2.495944 
2.468695 
2.454503 
2.448958 
2.446871 
2.445725 
2.443999 
2.446648 
2.448865 
2.455970 
2.460990 
2.487209 
2.512504 
2.509988 
2.501165 
2.494229 
2.485528 
2.484920 
2.484104 
2.482662 
2.479075 
2.478600 
2.480252 
2.480011 
2.481317 
2.490363 
2.487801 
2.493549 
2.512537 
2.522741 
2.528086 
2.545784 
2.557375 
2.566943 
2.568102 
2.566215 
2.566348 
2.569064 
2.558220 
2.545679 
2.545820 
2.537431 
2.534569 
2.534387 
2.528917 
2.537616 
2.533573 
2.522918 
2.517406 
2.521690 
2.525933 
2.515719 
2.508255 
2.516155 
2.522768 
2.516053 
2.518477 
2.522704 
2.523205 
2.513377 
2.513276 
2.513097 
2.513906 
2.514304 
2.515100 
2.510096 
2.513217 
2.523706 
2.515639 
2.512908 
2.504861 
2.506472 
2.503375 
2.512710 
2.516876 
2.508691 
2.514245 
2.509824 
2.514193 
2.513640 
2.523484 
2.526804 
2.519828 
2.513146 
2.512911 
2.527946 
2.528641 
2.525204 
2.519827 
2.519581 
2.514590 
2.515268 
2.524054 
2.528742 
2.524557 
2.512519 
2.507706 
2.498279 
2.492092 
2.493779 
2.494134 
2.489930 
2.478903 
2.468776 
2.464498 
2.462550 
2.463120 
2.457374 
2.446564 
2.444706 
2.459209 
2.463240 
2.462448 
2.460698 
2.458577 
2.465656 
2.464654 
2.461451 
2.461997 
2.459493 
2.469354 
2.488934 
2.500710 
2.481936 
2.466700 
2.476951 
2.477826 
2.471426 
2.474494 
2.477040 
2.476922 
2.487534 
2.483569 
2.481748 
2.487517 
2.481023 
2.482107 
2.484856 
2.472248 
2.465693 
2.466363 
2.475498 
2.484104 
2.495066 
2.482274 
2.481462 
2.479674 
2.489541 
2.488690 
2.505729 
2.514803 
2.522951 
2.523447 
2.526004 
2.520695 
2.508984 
2.503441 
2.479884 
2.461651 
2.464030 
2.463354 
2.454947 
2.446185 
2.442002 
2.447340 
2.446706 
2.449971 
2.454561 
2.459488 
2.480021 
2.477238 
2.469191 
2.463183 
2.462728 
2.471746 
2.473548 
2.476304 
2.482820 
2.482622 
2.478446 
2.472886 
2.468350 
2.461681 
2.459063 
2.461218 
2.455736 
2.457667 
2.464002 
2.459667 
2.456600 
2.454054 
2.452784 
2.451935 
2.451275 
2.455281 
2.451456 
2.453794 
2.453537 
2.452525 
2.454841 
2.466732 
2.489276 
2.491455 
2.485540 
2.466392 
2.455375 
2.462450 
2.488000 
2.511102 
2.536604 
2.549804 
2.570110 
2.574257 
2.575874 
2.575057 
2.554405 
2.544299 
2.532550 
2.522643 
2.524237 
2.518438 
2.508926 
2.500415 
2.490670 
2.488189 
2.488359 
2.491004 
2.481022 
2.477205 
2.484974 
2.490369 
2.497943 
2.493205 
2.474807 
2.482466 
2.483737 
2.479946 
2.471616 
2.474050 
2.474075 
2.470709 
2.465523 
2.459177 
2.477040 
2.494543 
2.487373 
2.473201 
2.472112 
2.466403 
2.456779 
2.451779 
2.449417 
2.451076 
2.446378 
2.446646 
2.461193 
2.480189 
2.495515 
2.511686 
2.512591 
2.499756 
2.497250 
2.490209 
2.484962 
2.478171 
2.475483 
2.478003 
2.475479 
2.469755 
2.480359 
2.481373 
2.479651 
2.487819 
2.484472 
2.488822 
2.494885 
2.501802 
2.503442 
2.507529 
2.514303 
2.507820 
2.505945 
2.504441 
2.508972 
2.502027 
2.503286 
2.502007 
2.502194 
2.508945 
2.502894 
2.508932 
2.512226 
2.512660 
2.525088 
2.527879 
2.525024 
2.506407 
2.506277 
2.506495 
2.500471 
2.501648 
2.498126 
2.497402 
2.492514 
2.487932 
2.487009 
2.487482 
2.488827 
2.491201 
2.494346 
2.500690 
2.510707 
2.509302 
2.501224 
2.493892 
2.488767 
2.489021 
2.487020 
2.488181 
2.498234 
2.498015 
2.491062 
2.488919 
2.486601 
2.480958 
2.479162 
2.475843 
2.472135 
2.470989 
2.470519 
2.473487 
2.472099 
2.471760 
2.472189 
2.476474 
2.477964 
2.481883 
2.496592 
2.506795 
2.496686 
2.493875 
2.486109 
2.480013 
2.483256 
2.480344 
2.471702 
2.465939 
2.472721 
2.472753 
2.468224 
2.467917 
2.467917 
2.468328 
2.468854 
2.467262 
2.473065 
2.474177 
2.474112 
2.474650 
2.492359 
2.503613 
2.511171 
2.519231 
2.529137 
2.524616 
2.506943 
2.497732 
2.495732 
2.492013 
2.489751 
2.489539 
2.497704 
2.494332 
2.487566 
2.483308 
2.477454 
2.481847 
2.472748 
2.473410 
2.465728 
2.455412 
2.457677 
2.471901 
2.463385 
2.453508 
2.455406 
2.470008 
2.470283 
2.476377 
2.481070 
2.475942 
2.464841 
2.471389 
2.472966 
2.471719 
2.471676 
2.480820 
2.482159 
2.485110 
2.492874 
2.490461 
2.490361 
2.493768 
2.495232 
2.488702 
2.481397 
2.483481 
2.494745 
2.495287 
2.495072 
2.483203 
2.473566 
2.466091 
2.464730 
2.458436 
2.459763 
2.459551 
2.459225 
2.463224 
2.475384 
2.485832 
2.490504 
2.503939 
2.503667 
2.492023 
2.497275 
2.515657 
2.527328 
2.527881 
2.529911 
2.545566 
2.540862 
2.528143 
2.532702 
2.550028 
2.548651 
2.528696 
2.518289 
2.509790 
2.495417 
2.492235 
2.478357 
2.468968 
2.483648 
2.504786 
2.500730 
2.490401 
2.486953 
2.498221 
2.514304 
2.515032 
2.506988 
2.495270 
2.487957 
2.493796 
2.496921 
2.489944 
2.497747 
2.513984 
2.524760 
2.518659 
2.506068 
2.500587 
2.491794 
2.481754 
2.471289 
2.468145 
2.464750 
2.467030 
2.465584 
2.463405 
2.470178 
2.472425 
2.468809 
2.469677 
2.470957 
2.472384 
2.474218 
2.474948 
2.473096 
2.465991 
2.463383 
2.465944 
2.473072 
2.474992 
2.478017 
2.473822 
2.493008 
2.500794 
2.495703 
2.490523 
2.489794 
2.482622 
2.470050 
2.464869 
2.467917 
2.470671 
2.476354 
2.471153 
2.473116 
2.482567 
2.509510 
2.523037 
2.517243 
2.525846 
2.520122 
2.507922 
2.500066 
2.510335 
2.503735 
2.494443 
2.492203 
2.495940 
2.491698 
2.482548 
2.462328 
2.462114 
2.464168 
2.470323 
2.485547 
2.503202 
2.507444 
2.509459 
2.514152 
2.515567 
2.518997 
2.512563 
2.513204 
2.512926 
2.504596 
2.512991 
2.510576 
2.506493 
2.504560 
2.500214 
2.499786 
2.503083 
2.498247 
2.501466 
2.492911 
2.496218 
2.499111 
2.493360 
2.491872 
2.488154 
2.474863 
2.467853 
2.473315 
2.478537 
2.471075 
2.477948 
2.468844 
2.457775 
2.453847 
2.448609 
2.441523 
2.434662 
2.451182 
2.478386 
2.490112 
2.500327 
2.497914 
2.500663 
2.493666 
2.505666 
2.506236 
2.499710 
2.496413 
2.489092 
2.487003 
2.481270 
2.479354 
2.483767 
2.489448 
2.495225 
2.490496 
2.490898 
2.488637 
2.486974 
2.487410 
2.487217 
2.490330 
2.489868 
2.491371 
2.495360 
2.499457 
2.496162 
2.480525 
2.473488 
2.473542 
2.468464 
2.473014 
2.476656 
2.476042 
2.467764 
2.477147 
2.485314 
2.486466 
2.483648 
2.482646 
2.484601 
2.482951 
2.478270 
2.482402 
2.477109 
2.465905 
2.465058 
2.480790 
2.495922 
2.500925 
2.501114 
2.502707 
2.501944 
2.507636 
2.501804 
2.490125 
2.487037 
2.489684 
2.482730 
2.473863 
2.479173 
2.479396 
2.485273 
2.482723 
2.484506 
2.476025 
2.478331 
2.487274 
2.490098 
2.490448 
2.496757 
2.502503 
2.503794 
2.494743 
2.488420 
2.488926 
2.491968 
2.493563 
2.495100 
2.517387 
2.535745 
2.546518 
2.549999 
2.554793 
2.563660 
2.558643 
2.547404 
2.542014 
2.538262 
2.540153 
2.542068 
2.540357 
2.536843 
2.535046 
2.539177 
2.552072 
2.555599 
2.553959 
2.549488 
2.534979 
2.530694 
2.529548 
2.521165 
2.515935 
2.516258 
2.509461 
2.503405 
2.498050 
2.493370 
2.484248 
2.481240 
2.477269 
2.474497 
2.464333 
2.464572 
2.472980 
2.491661 
2.513650 
2.499762 
2.497049 
2.499548 
2.494165 
2.482739 
2.487127 
2.489702 
2.489635 
2.489861 
2.490286 
2.495232 
2.495132 
2.496369 
2.498050 
2.488392 
2.483714 
2.489816 
2.498188 
2.504313 
2.506670 
2.498365 
2.497846 
2.489395 
2.488139 
2.482020 
2.482500 
2.485205 
2.485595 
2.486061 
2.481009 
2.490732 
2.494026 
2.492290 
2.487692 
2.486900 
2.486732 
2.484325 
2.482014 
2.490663 
2.494057 
2.493766 
2.494264 
2.495784 
2.502624 
2.508202 
2.509251 
2.502299 
2.499790 
2.501709 
2.502122 
2.498337 
2.504848 
2.502279 
2.501554 
2.503544 
2.502454 
2.505123 
2.509911 
2.508481 
2.501974 
2.508471 
2.508811 
2.506134 
2.507447 
2.512662 
2.509610 
2.510443 
2.509070 
2.506747 
2.496692 
2.490825 
2.495292 
2.494950 
2.496954 
2.492360 
2.499161 
2.498952 
2.503841 
2.504823 
2.511669 
2.512354 
2.514046 
2.501960 
2.490841 
2.484741 
2.488554 
2.478532 
2.470032 
2.473563 
2.465317 
2.470254 
2.488210 
2.510460 
2.501431 
2.495347 
2.487808 
2.480298 
2.482397 
2.477776 
2.472824 
2.470141 
2.472134 
2.499064 
2.503958 
2.508369 
2.495988 
2.476798 
2.471920 
2.468890 
2.475997 
2.494841 
2.499204 
2.493984 
2.489011 
2.483846 
2.484387 
2.482474 
2.485650 
2.489065 
2.487228 
2.487671 
2.482167 
2.488356 
2.494875 
2.505920 
2.513218 
2.522089 
2.520326 
2.515511 
2.511086 
2.520110 
2.522329 
2.520797 
2.513170 
2.516078 
2.514554 
2.519409 
2.518591 
2.509551 
2.514484 
2.516795 
2.514062 
2.511089 
2.508485 
2.504772 
2.511482 
2.508936 
2.513787 
2.506415 
2.496388 
2.496707 
2.498159 
2.501166 
2.504853 
2.511519 
2.524302 
2.521358 
2.522088 
2.531224 
2.530709 
2.522890 
2.518043 
2.523265 
2.530831 
2.527624 
2.527034 
2.522865 
2.520366 
2.523401 
2.515907 
2.511674 
2.504917 
2.498375 
2.498263 
2.500903 
2.512611 
2.523646 
2.522536 
2.522669 
2.519456 
2.518415 
2.518724 
2.510979 
2.509926 
2.505621 
2.497775 
2.483475 
2.480096 
2.483041 
2.480807 
2.479302 
2.502854 
2.517606 
2.520343 
2.516435 
2.502326 
2.493299 
2.484388 
2.481837 
2.479363 
2.472991 
2.480534 
2.497302 
2.517545 
2.533226 
2.532834 
2.516124 
2.511689 
2.509479 
2.515499 
2.527636 
2.530056 
2.524582 
2.511207 
2.499000 
2.495472 
2.493137 
2.493539 
2.489751 
2.488682 
2.487304 
2.486663 
2.487175 
2.480975 
2.483557 
2.487267 
2.498649 
2.505879 
2.518321 
2.524172 
2.514661 
2.516573 
2.520830 
2.515733 
2.516543 
2.520297 
2.513393 
2.517978 
2.511574 
2.516176 
2.525596 
2.530790 
2.526914 
2.528271 
2.528263 
2.514783 
2.503496 
2.500374 
2.501125 
2.497379 
2.492061 
2.494150 
2.494776 
2.496514 
2.489702 
2.487925 
2.486594 
2.490638 
2.493109 
2.481407 
2.478539 
2.483205 
2.484008 
2.478448 
2.479452 
2.472757 
2.470241 
2.465994 
2.470160 
2.468477 
2.469746 
2.474786 
2.476052 
2.475827 
2.470134 
2.467051 
2.467789 
2.464763 
2.471199 
2.471895 
2.493542 
2.519796 
2.504429 
2.496555 
2.485922 
2.483682 
2.481775 
2.487291 
2.488945 
2.493283 
2.492548 
2.482963 
2.483700 
2.478437 
2.465497 
2.466459 
2.472829 
2.485109 
2.508151 
2.506904 
2.512677 
2.518614 
2.533553 
2.552144 
2.557382 
2.553520 
2.546347 
2.541692 
2.539343 
2.551965 
2.543775 
2.546638 
2.547308 
2.540467 
2.537080 
2.543564 
2.620228 
2.605497 
2.584876 
2.601172 
2.595222 
2.593481 
2.593206 
2.568090 
2.578087 
2.568581 
2.551328 
2.571888 
2.579965 
2.576255 
2.600830 
2.607228 
2.613151 
2.597560 
2.578123 
2.567742 
2.568674 
2.566985 
2.569936 
2.573840 
2.551323 
2.532333 
2.520898 
2.531447 
2.544659 
2.547579 
2.551961 
2.572407 
2.586639 
2.601407 
2.606133 
2.574626 
2.568795 
2.575082 
2.571372 
2.584818 
2.573657 
2.563167 
2.572050 
2.586942 
2.565524 
2.557411 
2.580962 
2.584384 
2.571869 
2.546724 
2.541942 
2.536180 
2.584122 
2.596075 
2.605612 
2.621035 
2.629169 
2.633794 
2.634459 
2.630373 
2.632956 
2.629931 
2.651541 
2.658660 
2.670080 
2.647127 
2.654213 
2.674106 
2.633035 
2.641059 
2.645596 
2.619323 
2.608243 
2.618094 
2.607794 
2.608263 
2.590460 
2.557448 
2.563353 
2.558972 
2.544354 
2.536139 
2.542436 
2.548999 
2.560054 
2.555207 
2.539463 
2.554109 
2.577215 
2.557469 
2.546421 
2.542878 
2.539464 
2.515995 
2.490876 
2.479797 
2.482506 
2.476710 
2.486845 
2.510213 
2.519990 
2.502088 
2.490345 
2.492946 
2.510797 
2.501620 
2.490976 
2.489454 
2.488191 
2.489066 
2.489077 
2.491725 
2.505068 
2.507502 
2.517728 
2.527019 
2.536545 
2.528261 
2.531287 
2.532165 
2.521893 
2.536691 
2.547607 
2.556218 
2.556977 
2.550631 
2.544322 
2.540083 
2.537622 
2.537739 
2.537895 
2.535582 
2.529571 
2.524803 
2.518554 
2.517167 
2.509852 
2.501182 
2.500107 
2.528654 
2.564421 
2.568448 
2.560750 
2.541029 
2.540961 
2.527566 
2.514160 
2.504184 
2.492210 
2.483963 
2.478009 
2.471300 
2.477059 
2.482909 
2.481189 
2.498785 
2.533606 
2.530502 
2.513851 
2.508546 
2.523927 
2.539891 
2.518092 
2.510189 
2.507651 
2.500154 
2.505695 
2.502813 
2.510207 
2.510940 
2.494905 
2.484404 
2.488310 
2.510578 
2.528008 
2.518270 
2.511445 
2.528131 
2.547676 
2.535110 
2.526987 
2.519827 
2.521585 
2.540671 
2.550551 
2.551411 
2.541530 
2.529385 
2.518261 
2.502619 
2.499397 
2.509547 
2.511301 
2.496541 
2.475058 
2.470608 
2.465649 
2.507209 
2.538510 
2.531229 
2.513690 
2.500655 
2.501218 
2.501338 
2.488458 
2.474014 
2.471973 
2.471995 
2.464017 
2.462322 
2.472188 
2.470180 
2.462710 
2.462014 
2.462652 
2.479386 
2.498087 
2.498179 
2.494799 
2.494197 
2.489056 
2.493020 
2.481653 
2.487166 
2.497302 
2.510708 
2.514494 
2.502188 
2.490583 
2.524931 
2.525429 
2.510253 
2.504296 
2.507484 
2.500414 
2.497938 
2.494061 
2.501198 
2.504340 
2.495676 
2.494679 
2.490746 
2.503447 
2.500258 
2.498709 
2.497510 
2.495632 
2.487585 
2.489046 
2.486820 
2.494577 
2.494705 
2.484322 
2.482704 
2.478919 
2.479210 
2.480088 
2.474017 
2.478694 
2.470530 
2.477859 
2.476759 
2.471021 
2.476733 
2.472215 
2.478140 
2.485389 
2.474023 
2.478850 
2.478317 
2.491867 
2.501138 
2.508519 
2.511996 
2.509366 
2.511813 
2.507803 
2.511832 
2.507308 
2.504527 
2.500269 
2.510084 
2.521608 
2.516344 
2.510095 
2.505784 
2.504859 
2.507334 
2.499407 
2.501133 
2.498790 
2.495634 
2.502092 
2.499192 
2.504609 
2.519297 
2.534263 
2.549351 
2.541003 
2.534198 
2.527527 
2.517982 
2.507503 
2.500503 
2.499297 
2.498064 
2.495089 
2.491515 
2.488262 
2.477573 
2.473540 
2.471191 
2.471171 
2.472840 
2.474088 
2.476467 
2.481987 
2.478171 
2.469708 
2.472481 
2.471302 
2.467839 
2.474107 
2.472099 
2.476508 
2.477953 
2.471634 
2.471301 
2.476084 
2.476815 
2.478007 
2.487593 
2.486122 
2.484838 
2.480774 
2.475485 
2.466996 
2.475813 
2.478734 
2.480245 
2.477279 
2.476471 
2.473591 
2.475451 
2.473410 
2.479995 
2.479492 
2.479056 
2.478253 
2.484418 
2.490624 
2.490394 
2.482724 
2.485984 
2.486527 
2.484312 
2.483182 
2.484913 
2.494399 
2.505182 
2.517331 
2.515331 
2.498371 
2.490974 
2.486502 
2.491926 
2.491894 
2.487562 
2.493080 
2.489307 
2.486092 
2.487740 
2.489655 
2.484413 
2.484481 
2.492667 
2.490427 
2.480331 
2.480482 
2.485106 
2.492311 
2.497880 
2.489625 
2.486539 
2.483401 
2.499362 
2.502086 
2.502320 
2.501435 
2.502354 
2.496095 
2.490480 
2.492875 
2.496964 
2.493996 
2.498296 
2.489367 
2.484927 
2.480676 
2.477992 
2.477345 
2.476096 
2.475440 
2.476326 
2.478457 
2.474733 
2.466247 
2.463054 
2.465239 
2.460319 
2.461933 
2.462341 
2.456705 
2.452610 
2.464925 
2.465830 
2.472359 
2.480733 
2.476817 
2.487135 
2.493900 
2.478433 
2.469332 
2.473215 
2.480114 
2.482690 
2.469778 
2.467940 
2.462779 
2.461434 
2.464543 
2.468381 
2.472367 
2.475649 
2.467571 
2.464262 
2.473237 
2.472014 
2.474667 
2.477946 
2.473826 
2.474960 
2.478799 
2.486309 
2.484235 
2.480779 
2.475600 
2.473309 
2.467515 
2.467237 
2.467021 
2.470517 
2.469400 
2.468372 
2.462952 
2.468380 
2.479218 
2.480229 
2.474374 
2.470369 
2.464549 
2.462151 
2.458514 
2.457383 
2.447902 
2.454188 
2.457810 
2.453988 
2.455904 
2.459808 
2.472933 
2.472776 
2.466143 
2.465959 
2.493507 
2.513380 
2.516233 
2.493989 
2.483295 
2.477316 
2.476179 
2.472628 
2.476744 
2.478470 
2.497957 
2.643985 
2.634572 
2.619641 
2.571659 
2.526124 
2.519938 
2.532968 
2.542083 
2.536103 
2.533042 
2.522061 
2.512197 
2.503322 
2.498743 
2.493313 
2.494252 
2.484195 
2.474820 
2.475044 
2.477929 
2.516651 
2.523428 
2.500001 
2.493041 
2.497979 
2.516331 
2.499687 
2.487495 
2.488254 
2.491213 
2.490121 
2.491764 
2.488996 
2.494386 
2.493709 
2.499887 
2.537568 
2.517143 
2.511301 
2.493361 
2.506670 
2.522643 
2.512484 
2.502126 
2.500465 
2.561833 
2.589064 
2.566358 
2.547292 
2.527522 
2.516589 
2.509112 
2.503326 
2.511091 
2.566233 
2.573516 
2.587963 
2.602928 
2.609684 
2.623440 
2.638105 
2.641345 
2.635220 
2.631309 
2.638477 
2.638379 
2.631775 
2.630321 
2.620025 
2.605730 
2.599797 
2.589437 
2.582334 
2.570128 
2.550288 
2.541487 
2.536018 
2.536635 
2.529676 
2.548276 
2.573318 
2.542149 
2.516556 
2.502131 
2.497943 
2.492779 
2.483065 
2.474401 
2.473275 
2.472457 
2.472046 
2.470138 
2.468416 
2.472269 
2.474979 
2.481252 
2.484938 
2.488929 
2.472141 
2.465483 
2.467182 
2.467160 
2.467656 
2.471713 
2.472768 
2.473961 
2.479445 
2.483337 
2.482590 
2.482414 
2.485769 
2.488204 
2.495841 
2.505531 
2.507793 
2.511820 
2.512156 
2.509622 
2.511577 
2.504622 
2.506293 
2.515085 
2.527146 
2.520161 
2.517905 
2.516175 
2.513718 
2.502114 
2.500328 
2.506535 
2.508197 
2.511935 
2.520896 
2.522543 
2.517561 
2.515493 
2.512578 
2.508726 
2.500390 
2.512324 
2.509734 
2.513592 
2.509150 
2.500783 
2.496649 
2.503050 
2.502569 
2.496723 
2.497528 
2.498723 
2.503256 
2.514208 
2.519535 
2.520835 
2.524615 
2.526534 
2.520552 
2.513590 
2.514630 
2.521221 
2.515960 
2.512898 
2.517727 
2.509949 
2.505279 
2.497911 
2.481969 
2.476929 
2.476882 
2.481782 
2.484329 
2.480492 
2.481277 
2.483135 
2.478816 
2.471267 
2.470969 
2.476805 
2.478279 
2.495232 
2.504290 
2.501328 
2.495276 
2.489810 
2.496140 
2.499810 
2.502135 
2.493867 
2.491901 
2.493323 
2.494269 
2.493096 
2.506916 
2.509666 
2.504089 
2.494730 
2.495937 
2.488688 
2.489416 
2.495946 
2.497941 
2.491138 
2.489684 
2.492545 
2.490675 
2.479267 
2.466155 
2.469454 
2.478569 
2.508611 
2.513767 
2.492030 
2.486051 
2.483898 
2.481248 
2.488347 
2.514404 
2.525749 
2.540223 
2.545825 
2.535548 
2.521340 
2.509150 
2.483925 
2.478081 
2.469073 
2.470907 
2.465667 
2.466987 
2.467089 
2.474584 
2.479640 
2.470966 
2.473303 
2.488334 
2.486055 
2.492419 
2.516214 
2.509428 
2.516549 
2.519330 
2.495728 
2.492428 
2.485017 
2.495010 
2.493056 
2.482396 
2.494773 
2.518331 
2.518384 
2.532882 
2.515723 
2.512739 
2.500310 
2.494938 
2.488334 
2.491663 
2.491479 
2.509814 
2.525903 
2.521328 
2.507520 
2.495821 
2.494436 
2.489133 
2.485947 
2.485313 
2.478850 
2.469642 
2.472490 
2.478803 
2.487117 
2.492758 
2.485715 
2.480793 
2.489035 
2.491133 
2.494060 
2.489362 
2.488400 
2.492067 
2.488487 
2.485856 
2.482816 
2.489318 
2.507633 
2.512576 
2.505931 
2.499571 
2.501121 
2.497032 
2.496285 
2.491903 
2.486216 
2.488181 
2.481987 
2.478442 
2.481568 
2.469168 
2.454732 
2.458320 
2.467823 
2.488415 
2.506414 
2.492211 
2.492394 
2.492160 
2.490900 
2.470592 
2.471605 
2.471379 
2.474767 
2.483356 
2.490941 
2.503663 
2.507868 
2.504504 
2.500201 
2.509825 
2.508023 
2.522739 
2.502400 
2.483946 
2.475119 
2.466204 
2.465303 
2.462197 
2.459448 
2.455085 
2.461791 
2.472097 
2.487334 
2.518875 
2.526276 
2.509927 
2.502804 
2.510241 
2.497642 
2.488832 
2.499895 
2.497166 
2.513538 
2.513776 
2.498899 
2.490425 
2.491236 
2.497263 
2.494820 
2.491657 
2.495510 
2.494086 
2.493935 
2.502041 
2.503719 
2.509414 
2.505384 
2.504377 
2.505873 
2.511313 
2.510133 
2.506806 
2.503981 
2.500848 
2.494710 
2.497910 
2.493046 
2.497521 
2.500803 
2.496077 
2.504404 
2.498501 
2.497505 
2.495991 
2.489611 
2.490353 
2.492841 
2.491845 
2.488509 
2.482402 
2.474966 
2.471511 
2.476210 
2.478837 
2.473326 
2.471068 
2.470050 
2.475879 
2.483858 
2.478207 
2.475555 
2.474704 
2.479667 
2.482155 
2.486389 
2.488181 
2.489184 
2.486394 
2.499239 
2.495416 
2.497833 
2.488625 
2.506549 
2.502624 
2.509851 
2.494543 
2.494719 
2.495911 
2.489125 
2.492103 
2.501015 
2.499032 
2.496278 
2.496432 
2.498824 
2.493367 
2.486337 
2.481722 
2.476128 
2.478064 
2.475424 
2.483259 
2.504059 
2.502677 
2.507382 
2.505647 
2.504621 
2.507513 
2.518164 
2.514701 
2.509269 
2.500395 
2.487591 
2.483160 
2.478577 
2.482788 
2.486394 
2.486769 
2.489792 
2.493781 
2.518077 
2.543607 
2.557473 
2.564169 
2.563332 
2.563486 
2.563495 
2.558382 
2.548774 
2.543803 
2.545643 
2.532516 
2.520641 
2.513776 
2.506839 
2.506766 
2.491602 
2.482768 
2.483855 
2.485674 
2.482901 
2.490426 
2.486820 
2.475450 
2.475010 
2.475615 
2.480709 
2.483142 
2.489519 
2.499614 
2.501572 
2.497441 
2.499546 
2.498624 
2.491069 
2.493821 
2.494100 
2.489087 
2.485564 
2.486085 
2.497235 
2.499755 
2.502995 
2.501005 
2.499125 
2.506395 
2.518280 
2.520797 
2.527523 
2.522982 
2.515438 
2.509474 
2.504825 
2.498299 
2.492064 
2.486553 
2.490066 
2.495933 
2.477617 
2.475762 
2.472731 
2.482671 
2.499075 
2.504388 
2.501377 
2.492657 
2.494147 
2.489688 
2.483462 
2.488369 
2.511072 
2.535620 
2.541135 
2.529654 
2.524593 
2.519374 
2.520797 
2.511119 
2.510858 
2.514073 
2.521881 
2.521169 
2.514744 
2.513615 
2.501664 
2.492242 
2.492162 
2.488865 
2.489286 
2.491158 
2.494251 
2.505248 
2.503918 
2.498964 
2.495977 
2.495990 
2.492078 
2.489821 
2.477195 
2.472363 
2.475079 
2.478924 
2.487237 
2.490690 
2.488947 
2.495945 
2.493539 
2.497057 
2.499238 
2.494646 
2.485215 
2.485707 
2.485340 
2.488995 
2.489429 
2.489655 
2.482935 
2.477701 
2.491359 
2.489461 
2.489291 
2.491431 
2.484209 
2.486598 
2.511413 
2.509092 
2.521791 
2.515665 
2.490441 
2.481390 
2.485594 
2.481197 
2.498368 
2.509284 
2.512440 
2.505835 
2.505694 
2.510967 
2.518237 
2.537321 
2.537123 
2.534492 
2.541573 
2.537692 
2.549356 
2.561166 
2.554487 
2.540561 
2.535136 
2.532364 
2.534403 
2.528539 
2.523145 
2.521923 
2.515477 
2.515091 
2.520806 
2.545617 
2.543150 
2.539285 
2.534202 
2.533976 
2.528758 
2.525513 
2.521092 
2.518565 
2.518484 
2.523636 
2.518236 
2.514175 
2.509208 
2.511812 
2.513471 
2.508087 
2.507252 
2.504129 
2.506623 
2.509972 
2.508269 
2.500729 
2.504998 
2.506448 
2.501912 
2.499639 
2.502993 
2.497811 
2.494754 
2.495990 
2.487255 
2.493718 
2.497670 
2.499788 
2.491323 
2.493837 
2.503936 
2.519977 
2.525444 
2.525769 
2.518855 
2.513564 
2.512863 
2.507557 
2.510501 
2.514872 
2.514044 
2.516809 
2.522141 
2.522656 
2.517918 
2.514895 
2.502786 
2.502269 
2.500695 
2.501904 
2.499130 
2.499686 
2.492351 
2.491314 
2.486926 
2.486202 
2.479869 
2.484007 
2.496530 
2.507790 
2.519698 
2.523242 
2.520364 
2.524910 
2.519343 
2.517010 
2.508475 
2.506770 
2.507086 
2.508482 
2.514802 
2.523714 
2.530799 
2.536203 
2.535512 
2.548799 
2.545834 
2.538755 
2.538077 
2.536783 
2.537668 
2.540878 
2.537683 
2.518989 
2.500253 
2.494456 
2.488126 
2.481493 
2.501198 
2.531677 
2.516132 
2.504468 
2.496773 
2.491461 
2.497523 
2.499093 
2.509384 
2.517847 
2.516560 
2.518050 
2.505898 
2.495177 
2.498244 
2.531154 
2.551179 
2.528505 
2.517938 
2.528904 
2.532029 
2.525603 
2.526605 
2.526046 
2.526559 
2.528049 
2.536907 
2.533953 
2.532730 
2.534229 
2.537999 
2.547066 
2.544512 
2.549952 
2.551804 
2.554225 
2.561073 
2.562774 
2.568053 
2.562431 
2.552764 
2.550961 
2.551984 
2.546375 
2.544463 
2.545620 
2.543684 
2.544983 
2.550202 
2.543854 
2.540250 
2.541973 
2.545356 
2.552841 
2.556625 
2.554775 
2.548932 
2.552528 
2.546769 
2.530114 
2.529361 
2.526883 
2.534563 
2.532887 
2.535451 
2.541411 
2.537488 
2.529922 
2.527319 
2.535314 
2.538878 
2.541158 
2.538427 
2.529542 
2.543307 
2.546407 
2.544219 
2.538794 
2.545849 
2.545216 
2.537948 
2.539510 
2.541154 
2.538345 
2.553841 
2.569228 
2.584639 
2.583749 
2.574952 
2.575693 
2.564060 
2.559389 
2.555572 
2.550403 
2.549092 
2.547799 
2.550287 
2.557040 
2.558093 
2.565761 
2.566418 
2.569781 
2.578413 
2.576825 
2.575992 
2.569699 
2.560649 
2.561421 
2.561413 
2.559237 
2.552744 
2.552694 
2.550409 
2.544758 
2.544904 
2.547540 
2.547964 
2.547926 
2.541617 
2.543612 
2.538056 
2.542401 
2.535917 
2.533858 
2.537788 
2.539627 
2.542027 
2.539447 
2.527751 
2.518331 
2.504327 
2.496953 
2.492786 
2.491072 
2.481205 
2.479856 
2.478096 
2.507138 
2.538839 
2.534362 
2.498697 
2.486653 
2.487972 
2.489443 
2.500609 
2.528994 
2.529071 
2.532247 
2.502902 
2.507474 
2.521951 
2.507691 
2.521639 
2.534747 
2.537766 
2.520969 
2.512059 
2.512172 
2.507061 
2.509547 
2.500074 
2.495182 
2.485420 
2.492457 
2.505471 
2.489653 
2.484132 
2.475113 
2.482214 
2.482622 
2.493452 
2.497286 
2.519291 
2.527905 
2.532919 
2.534752 
2.524584 
2.513084 
2.508914 
2.511510 
2.513328 
2.509532 
2.508274 
2.507491 
2.503720 
2.509581 
2.510963 
2.514869 
2.514102 
2.521827 
2.525043 
2.500773 
2.487095 
2.476563 
2.476304 
2.479870 
2.485507 
2.484128 
2.495630 
2.506418 
2.509410 
2.510569 
2.517314 
2.507979 
2.496366 
2.493919 
2.494363 
2.494634 
2.500261 
2.504885 
2.516358 
2.516741 
2.507523 
2.510330 
2.512209 
2.503807 
2.497999 
2.512677 
2.528138 
2.523854 
2.522221 
2.522363 
2.520655 
2.514769 
2.510650 
2.509673 
2.521689 
2.527178 
2.532762 
2.542096 
2.547635 
2.566461 
2.563186 
2.539216 
2.527628 
2.523480 
2.521859 
2.523434 
2.514642 
2.512591 
2.510480 
2.509444 
2.516431 
2.540141 
2.523352 
2.513394 
2.504148 
2.503868 
2.507354 
2.500977 
2.505293 
2.506416 
2.511181 
2.509568 
2.507351 
2.505885 
2.507040 
2.509241 
2.527417 
2.514691 
2.514300 
2.511691 
2.510670 
2.511053 
2.507322 
2.515696 
2.515076 
2.508151 
2.503360 
2.500759 
2.505627 
2.506703 
2.504265 
2.494134 
2.492354 
2.489468 
2.487803 
2.480509 
2.480047 
2.478181 
2.475986 
2.481496 
2.486021 
2.490402 
2.503107 
2.518953 
2.524796 
2.522262 
2.520312 
2.527509 
2.540759 
2.526684 
2.515141 
2.531351 
2.517578 
2.511498 
2.511123 
2.509685 
2.510615 
2.520428 
2.519386 
2.529242 
2.533345 
2.536439 
2.551424 
2.569627 
2.551287 
2.539195 
2.535957 
2.536558 
2.527878 
2.520396 
2.521188 
2.515723 
2.515285 
2.511682 
2.504745 
2.500621 
2.500000 
2.510443 
2.510346 
2.515128 
2.517268 
2.535553 
2.522111 
2.508407 
2.502654 
2.497832 
2.498952 
2.504880 
2.503756 
2.512669 
2.501326 
2.498476 
2.492607 
2.477770 
2.478962 
2.477442 
2.465603 
2.462067 
2.456951 
2.462534 
2.477276 
2.488953 
2.498260 
2.511926 
2.537840 
2.525710 
2.518687 
2.526799 
2.532805 
2.498639 
2.495261 
2.527847 
2.543968 
2.516573 
2.503192 
2.513999 
2.527080 
2.523536 
2.516418 
2.513349 
2.507096 
2.520283 
2.525269 
2.526775 
2.512191 
2.499312 
2.505254 
2.524254 
2.525221 
2.540705 
2.529243 
2.519203 
2.512996 
2.508252 
2.507871 
2.504330 
2.497300 
2.506173 
2.529045 
2.518907 
2.519092 
2.510926 
2.507930 
2.520546 
2.531683 
2.550120 
2.556062 
2.547696 
2.543676 
2.546895 
2.551634 
2.554015 
2.559663 
2.561475 
2.560985 
2.579288 
2.584703 
2.565495 
2.559778 
2.552204 
2.545397 
2.544399 
2.546398 
2.554787 
2.550033 
2.552559 
2.550755 
2.548648 
2.548422 
2.550570 
2.549964 
2.550443 
2.554582 
2.557319 
2.551020 
2.554212 
2.556965 
2.560296 
2.557586 
2.552574 
2.538884 
2.534696 
2.539360 
2.535420 
2.537448 
2.535761 
2.527666 
2.527099 
2.525364 
2.527523 
2.529252 
2.545324 
2.540650 
2.536126 
2.539441 
2.543482 
2.538978 
2.536290 
2.535417 
2.527421 
2.519119 
2.505469 
2.505959 
2.498284 
2.498953 
2.494876 
2.503405 
2.498341 
2.496411 
2.491849 
2.489424 
2.495744 
2.501955 
2.509916 
2.504891 
2.512696 
2.536622 
2.547434 
2.541279 
2.547082 
2.538758 
2.561672 
2.543333 
2.549894 
2.535545 
2.521752 
2.525238 
2.533450 
2.536182 
2.531829 
2.529203 
2.531359 
2.534377 
2.540630 
2.545665 
2.545594 
2.553674 
2.563742 
2.561601 
2.572434 
2.578914 
2.580645 
2.585318 
2.585622 
2.583301 
2.578124 
2.578896 
2.577457 
2.583917 
2.582848 
2.580144 
2.573201 
2.568815 
2.565086 
2.553850 
2.556710 
2.548329 
2.541408 
2.533382 
2.526529 
2.527619 
2.537941 
2.536039 
2.532663 
2.526713 
2.521999 
2.520484 
2.537021 
2.534639 
2.539482 
2.539158 
2.534541 
2.534389 
2.531123 
2.528105 
2.527563 
2.519564 
2.507606 
2.493519 
2.503712 
2.514319 
2.530283 
2.519274 
2.532061 
2.529336 
2.523939 
2.516784 
2.526433 
2.510311 
2.489175 
2.507506 
2.507870 
2.516612 
2.516019 
2.513113 
2.519037 
2.524456 
2.523764 
2.515665 
2.505382 
2.502430 
2.506052 
2.513117 
2.538190 
2.552601 
2.538903 
2.522371 
2.523889 
2.510001 
2.519811 
2.528196 
2.529799 
2.520166 
2.518907 
2.552186 
2.567411 
2.563335 
2.558087 
2.546050 
2.522919 
2.523821 
2.519955 
2.530955 
2.542201 
2.538309 
2.528802 
2.532673 
2.532778 
2.527976 
2.522296 
2.520472 
2.515852 
2.516341 
2.514191 
2.512695 
2.505998 
2.505133 
2.497180 
2.495285 
2.492506 
2.480385 
2.487755 
2.499818 
2.523609 
2.544282 
2.551579 
2.534733 
2.529962 
2.553546 
2.580832 
2.560466 
2.537873 
2.527977 
2.527090 
2.512027 
2.497514 
2.540798 
2.547045 
2.530692 
2.541433 
2.544075 
2.547070 
2.545794 
2.539857 
2.555310 
2.543513 
2.524482 
2.518423 
2.514640 
2.516670 
2.533488 
2.547516 
2.537345 
2.542327 
2.539832 
2.537520 
2.552928 
2.541946 
2.536371 
2.531535 
2.541155 
2.551767 
2.557707 
2.555662 
2.547446 
2.534240 
2.511214 
2.506393 
2.501821 
2.492676 
2.494818 
2.499527 
2.503488 
2.506686 
2.529071 
2.555969 
2.543432 
2.530006 
2.529220 
2.525934 
2.536376 
2.548064 
2.523412 
2.508917 
2.503756 
2.513263 
2.543174 
2.551551 
2.545556 
2.534298 
2.533179 
2.548568 
2.531325 
2.519334 
2.507882 
2.487153 
2.510768 
2.529816 
2.530709 
2.524016 
2.520064 
2.499414 
2.513713 
2.522705 
2.545978 
2.554262 
2.571425 
2.550138 
2.548530 
2.520101 
2.517893 
2.525488 
2.526781 
2.530160 
2.520558 
2.535070 
2.542756 
2.530017 
2.534120 
2.544255 
2.522542 
2.508942 
2.506843 
2.517070 
2.536747 
2.534000 
2.513267 
2.511242 
2.532191 
2.538277 
2.542435 
2.547319 
2.529008 
2.516576 
2.522592 
2.527413 
2.517666 
2.520621 
2.519552 
2.501567 
2.525890 
2.528329 
2.578409 
2.555544 
2.525664 
2.520861 
2.524980 
2.555737 
2.531718 
2.542178 
2.569599 
2.550987 
2.538303 
2.539662 
2.534231 
2.538563 
2.551169 
2.547456 
2.514339 
2.504083 
2.503673 
2.510937 
2.524777 
2.532071 
2.550518 
2.560257 
2.551959 
2.535557 
2.527163 
2.551382 
2.535531 
2.525383 
2.521172 
2.534808 
2.540184 
2.534176 
2.523331 
2.517603 
2.524144 
2.525839 
2.513751 
2.500632 
2.498433 
2.520948 
2.528972 
2.540226 
2.539360 
2.540820 
2.520199 
2.519242 
2.523231 
2.518673 
2.516079 
2.545322 
2.556029 
2.544068 
2.545438 
2.535268 
2.521643 
2.506969 
2.501202 
2.512009 
2.525726 
2.523820 
2.538266 
2.551960 
2.540160 
2.564069 
2.549101 
2.540714 
2.538365 
2.529533 
2.536995 
2.542243 
2.551904 
2.548369 
2.535544 
2.527441 
2.534690 
2.524988 
2.522940 
2.532220 
2.532530 
2.522402 
2.525653 
2.526986 
2.525592 
2.517725 
2.522190 
2.527638 
2.531038 
2.532519 
2.534844 
2.533018 
2.526853 
2.522184 
2.517863 
2.517996 
2.518710 
2.523701 
2.531266 
2.520875 
2.519432 
2.525393 
2.522016 
2.522251 
2.525644 
2.526325 
2.527728 
2.530274 
2.538102 
2.530299 
2.526266 
2.525715 
2.524277 
2.527251 
2.518423 
2.514458 
2.514088 
2.525363 
2.549913 
2.559537 
2.565617 
2.566104 
2.562251 
2.572101 
2.589101 
2.595858 
2.596577 
2.602180 
2.603032 
2.601491 
2.598887 
2.602236 
2.602811 
2.603878 
2.607417 
2.605083 
2.600900 
2.606280 
2.612672 
2.610285 
2.609439 
2.610668 
2.610308 
2.606281 
2.601563 
2.602473 
2.597079 
2.602011 
2.601328 
2.603085 
2.602626 
2.604193 
2.596728 
2.592211 
2.590795 
2.591869 
2.596011 
2.605398 
2.605745 
2.600240 
2.599208 
2.594545 
2.594248 
2.597666 
2.599539 
2.596348 
2.598477 
2.593165 
2.599348 
2.593704 
2.587938 
2.586415 
2.588483 
2.584011 
2.583646 
2.583477 
2.572198 
2.570773 
2.573031 
2.566938 
2.551840 
2.542116 
2.544848 
2.545362 
2.543367 
2.542846 
2.545754 
2.553028 
2.551003 
2.552181 
2.552340 
2.549966 
2.548088 
2.550051 
2.546724 
2.540056 
2.544006 
2.544815 
2.545171 
2.547018 
2.540526 
2.538126 
2.531125 
2.530827 
2.525831 
2.519157 
2.520368 
2.526832 
2.524646 
2.526907 
2.519881 
2.519228 
2.517885 
2.526325 
2.531891 
2.533127 
2.523164 
2.524248 
2.519726 
2.509612 
2.502432 
2.500003 
2.494499 
2.495432 
2.503815 
2.502814 
2.503136 
2.498744 
2.504590 
2.511641 
2.513378 
2.518325 
2.520535 
2.522536 
2.522514 
2.529995 
2.529426 
2.524870 
2.515262 
2.516940 
2.520529 
2.529765 
2.528789 
2.532703 
2.524691 
2.516670 
2.529374 
2.536994 
2.544492 
2.552893 
2.547538 
2.548841 
2.549157 
2.543126 
2.545095 
2.549720 
2.551388 
2.550649 
2.549057 
2.548112 
2.548501 
2.547569 
2.560404 
2.549379 
2.538726 
2.536851 
2.528152 
2.527298 
2.521258 
2.525854 
2.523978 
2.528318 
2.522406 
2.523627 
2.519578 
2.524350 
2.517017 
2.518458 
2.515091 
2.516979 
2.515618 
2.515372 
2.516990 
2.518457 
2.516761 
2.515799 
2.515679 
2.511202 
2.515743 
2.514874 
2.515094 
2.523059 
2.509165 
2.509820 
2.509629 
2.504599 
2.502277 
2.511094 
2.525589 
2.538827 
2.540000 
2.551010 
2.558385 
2.558224 
2.549992 
2.544474 
2.540071 
2.543585 
2.540887 
2.541589 
2.539473 
2.531465 
2.521832 
2.514396 
2.518265 
2.515828 
2.510296 
2.502892 
2.509703 
2.512155 
2.515094 
2.516716 
2.514524 
2.526433 
2.528279 
2.536103 
2.530117 
2.523598 
2.526707 
2.525696 
2.540733 
2.566624 
2.609914 
2.618370 
2.665696 
2.668828 
2.631669 
2.619226 
2.629372 
2.635799 
2.664595 
2.642464 
2.619898 
2.606366 
2.591660 
2.565498 
2.537821 
2.523469 
2.515400 
2.516809 
2.516921 
2.515538 
2.514592 
2.521384 
2.542987 
2.543737 
2.522656 
2.527514 
2.556358 
2.577105 
2.575120 
2.536982 
2.514078 
2.500113 
2.486183 
2.492629 
2.490660 
2.487381 
2.477856 
2.561114 
2.591181 
2.566701 
2.580173 
2.625400 
2.596668 
2.544728 
2.513196 
2.495706 
2.515306 
2.583241 
2.560296 
2.536344 
2.510728 
2.491279 
2.477289 
2.474635 
2.477479 
2.480660 
2.483704 
2.525104 
2.559463 
2.562029 
2.551268 
2.530743 
2.502730 
2.478150 
2.477969 
2.474635 
2.472051 
2.464681 
2.477649 
2.518945 
2.533605 
2.512386 
2.494603 
2.488467 
2.491947 
2.509082 
2.516645 
2.503441 
2.495195 
2.481646 
2.481477 
2.479864 
2.478716 
2.481849 
2.491878 
2.504670 
2.491870 
2.480994 
2.482472 
2.480393 
2.480640 
2.479502 
2.481555 
2.485476 
2.490676 
2.491157 
2.489304 
2.489525 
2.490660 
2.484360 
2.479326 
2.482125 
2.487939 
2.483640 
2.489474 
2.482956 
2.481002 
2.485209 
2.483318 
2.479088 
2.479212 
2.474265 
2.471023 
2.479821 
2.489269 
2.489633 
2.480774 
2.474482 
2.483708 
2.517918 
2.534638 
2.517156 
2.504175 
2.496461 
2.495752 
2.489291 
2.499014 
2.523108 
2.525769 
2.510941 
2.503001 
2.492642 
2.536382 
2.570118 
2.548202 
2.527337 
2.519939 
2.537427 
2.539709 
2.540343 
2.535557 
2.533538 
2.555339 
2.560982 
2.558338 
2.556074 
2.578646 
2.574740 
2.553361 
2.552974 
2.558179 
2.562898 
2.556277 
2.527202 
2.527827 
2.530845 
2.551137 
2.564856 
2.576994 
2.578875 
2.580097 
2.553021 
2.564641 
2.568848 
2.558222 
2.550085 
2.542969 
2.550290 
2.552164 
2.558720 
2.545346 
2.546432 
2.576614 
2.565911 
2.551993 
2.565965 
2.557612 
2.542889 
2.546688 
2.534799 
2.558842 
2.572987 
2.588814 
2.589935 
2.562031 
2.550823 
2.554595 
2.565709 
2.577062 
2.598148 
2.583258 
2.576656 
2.554671 
2.554636 
2.570561 
2.577313 
2.557135 
2.566645 
2.564230 
2.573092 
2.585325 
2.590753 
2.593816 
2.588384 
2.577933 
2.585620 
2.578011 
2.569513 
2.574997 
2.576084 
2.594652 
2.586592 
2.588655 
2.582317 
2.572409 
2.563925 
2.550008 
2.521674 
2.533962 
2.568735 
2.578545 
2.574757 
2.575955 
2.572365 
2.577429 
2.599256 
2.597647 
2.559356 
2.564218 
2.570643 
2.572938 
2.575595 
2.574665 
2.569488 
2.554095 
2.557111 
2.601303 
2.594720 
2.575186 
2.602686 
2.568183 
2.540592 
2.556856 
2.573817 
2.550090 
2.574522 
2.576896 
2.571615 
2.532760 
2.534071 
2.546849 
2.581263 
2.599098 
2.600527 
2.601092 
2.596066 
2.573813 
2.576263 
2.549086 
2.560891 
2.559360 
2.579235 
2.571627 
2.551505 
2.553835 
2.583463 
2.596991 
2.560442 
2.542018 
2.554210 
2.574803 
2.550028 
2.556539 
2.576002 
2.586706 
2.569080 
2.565439 
2.557274 
2.591766 
2.580768 
2.573222 
2.595496 
2.561498 
2.587254 
2.574488 
2.584885 
2.601489 
2.559350 
2.579997 
2.561839 
2.652710 
2.707389 
2.707735 
2.703639 
2.701305 
2.694354 
2.681377 
2.663885 
2.643711 
2.616766 
2.568377 
2.520107 
2.482761 
2.569684 
2.622213 
2.580640 
2.575329 
2.558134 
2.557635 
2.567819 
2.559412 
2.589202 
2.603501 
2.616499 
2.593808 
2.569800 
2.572626 
2.576581 
2.589359 
2.577513 
2.587749 
2.567183 
2.574169 
2.590338 
2.568551 
2.543415 
2.541306 
2.582879 
2.600831 
2.567489 
2.563407 
2.540531 
2.556745 
2.539409 
2.535565 
2.561333 
2.584759 
2.602708 
2.610710 
2.579911 
2.551017 
2.564275 
2.586561 
2.605248 
2.613127 
2.598990 
2.603292 
2.578846 
2.560877 
2.585152 
2.571043 
2.565940 
2.584087 
2.565103 
2.563080 
2.557377 
2.539127 
2.555780 
2.555818 
2.561674 
2.590223 
2.590300 
2.578314 
2.560066 
2.578185 
2.583624 
2.577057 
2.556050 
2.572277 
2.581139 
2.579962 
2.579344 
2.535958 
2.543995 
2.547173 
2.559224 
2.570515 
2.590690 
2.586927 
2.587449 
2.570844 
2.547694 
2.554985 
2.546211 
2.544780 
2.550611 
2.568714 
2.552572 
2.521364 
2.557801 
2.563828 
2.542757 
2.545045 
2.561394 
2.562344 
2.539825 
2.531612 
2.525018 
2.552751 
2.561984 
2.567038 
2.589474 
2.560290 
2.545273 
2.540684 
2.561645 
2.550900 
2.545273 
2.535789 
2.562236 
2.581775 
2.580275 
2.575854 
2.559146 
2.580925 
2.595410 
2.571678 
2.559389 
2.564886 
2.547645 
2.535140 
2.576275 
2.569773 
2.553244 
2.547979 
2.555067 
2.568499 
2.537771 
2.527710 
2.515091 
2.522626 
2.533075 
2.559422 
2.565183 
2.568726 
2.584575 
2.601874 
2.594417 
2.640534 
2.651457 
2.635929 
2.638012 
2.631117 
2.622518 
2.638408 
2.640057 
2.628273 
2.660042 
2.681828 
2.670217 
2.675404 
2.666733 
2.655682 
2.639594 
2.618667 
2.626772 
2.602268 
2.596780 
2.536771 
2.507397 
2.553763 
2.593139 
2.635379 
2.591638 
2.555058 
2.511471 
2.490892 
2.498826 
2.608299 
2.572675 
2.516143 
2.478411 
2.479895 
2.607001 
2.662580 
2.606852 
2.545093 
2.499519 
2.471771 
2.479766 
2.587192 
2.625814 
2.578883 
2.525375 
2.481471 
2.463492 
2.544773 
2.594427 
2.527612 
2.495380 
2.474356 
2.459615 
2.521002 
2.534782 
2.481496 
2.469849 
2.518193 
2.622421 
2.613048 
2.536600 
2.491979 
2.462394 
2.470922 
2.546093 
2.545455 
2.490725 
2.472458 
2.545918 
2.660838 
2.685674 
2.669821 
2.655370 
2.651783 
2.632573 
2.623435 
2.636932 
2.592962 
2.597269 
2.615331 
2.595929 
2.608684 
2.618129 
2.607277 
2.613985 
2.630215 
2.672250 
2.662177 
2.625495 
2.604320 
2.599727 
2.640184 
2.632320 
2.640137 
2.652641 
2.625506 
2.641633 
2.630981 
2.654766 
2.620559 
2.586492 
2.584925 
2.604387 
2.629210 
2.631950 
2.638218 
2.631387 
2.633413 
2.633919 
2.619561 
2.621877 
2.590754 
2.589122 
2.616553 
2.640348 
2.641458 
2.620415 
2.611136 
2.583963 
2.535704 
2.484911 
2.492259 
2.634554 
2.633034 
2.649839 
2.609156 
2.604812 
2.604138 
2.610647 
2.563501 
2.496298 
2.458189 
2.473727 
2.574290 
2.601601 
2.626399 
2.636344 
2.619368 
2.614959 
2.579127 
2.559154 
2.550848 
2.585793 
2.594932 
2.589013 
2.560423 
2.551300 
2.551480 
2.551485 
2.571152 
2.591583 
2.586561 
2.631529 
2.607405 
2.619667 
2.569336 
2.575624 
2.552274 
2.535000 
2.551557 
2.568031 
2.575091 
2.598072 
2.602161 
2.574836 
2.589037 
2.580991 
2.593945 
2.600429 
2.580784 
2.591820 
2.596135 
2.617296 
2.598808 
2.559628 
2.599332 
2.589572 
2.577455 
2.566914 
2.589598 
2.590571 
2.590046 
2.603410 
2.567650 
2.565720 
2.577029 
2.587101 
2.596585 
2.569103 
2.539963 
2.569389 
2.612793 
2.596331 
2.608804 
2.586714 
2.579454 
2.572092 
2.571164 
2.584225 
2.586319 
2.569999 
2.582656 
2.575346 
2.584742 
2.574979 
2.571352 
2.528247 
2.581257 
2.541073 
2.543191 
2.595891 
2.610923 
2.611529 
2.646793 
2.658263 
2.662898 
2.667689 
2.657387 
2.636680 
2.625432 
2.610375 
2.604179 
2.603184 
2.615154 
2.595605 
2.585038 
2.589709 
2.595464 
2.587102 
2.597476 
2.619041 
2.597560 
2.601257 
2.594421 
2.615669 
2.664868 
2.720778 
2.701634 
2.668206 
2.647215 
2.622156 
2.599142 
2.609103 
2.599220 
2.596728 
2.608972 
2.591938 
2.579413 
2.601181 
2.602948 
2.594430 
2.599915 
2.594588 
2.599259 
2.594384 
2.599773 
2.580824 
2.588547 
2.590481 
2.595809 
2.587064 
2.587234 
2.590953 
2.592712 
2.607562 
2.603412 
2.601033 
2.600871 
2.602022 
2.606864 
2.594436 
2.574949 
2.593173 
2.592927 
2.589118 
2.590052 
2.598860 
2.597633 
2.603443 
2.608882 
2.588963 
2.581632 
2.583545 
2.595052 
2.589244 
2.599766 
2.591011 
2.593232 
2.595445 
2.592179 
2.602496 
2.604585 
2.594483 
2.586820 
2.595273 
2.598245 
2.627951 
2.568056 
2.582292 
2.580759 
2.581271 
2.593371 
2.610042 
2.570860 
2.572187 
2.565035 
2.592524 
2.608478 
2.593090 
2.571216 
2.591179 
2.580057 
2.577672 
2.572779 
2.600726 
2.564779 
2.554278 
2.566662 
2.545553 
2.546230 
2.541474 
2.543215 
2.570554 
2.580553 
2.557604 
2.552871 
2.551570 
2.532022 
2.541726 
2.566295 
2.553929 
2.554304 
2.582171 
2.563421 
2.576254 
2.582989 
2.589349 
2.597398 
2.586561 
2.591463 
2.595674 
2.595113 
2.584350 
2.573285 
2.579581 
2.584326 
2.575562 
2.578272 
2.550427 
2.578993 
2.569499 
2.578872 
2.565143 
2.574115 
2.580549 
2.580089 
2.552334 
2.562093 
2.566437 
2.573418 
2.574617 
2.563034 
2.561297 
2.559891 
2.566170 
2.575070 
2.586867 
2.596444 
2.595230 
2.573633 
2.574636 
2.572038 
2.575098 
2.580158 
2.593990 
2.582506 
2.564658 
2.572751 
2.577991 
2.576970 
2.555897 
2.581130 
2.575400 
2.574500 
2.568137 
2.570366 
2.588601 
2.604290 
2.604451 
2.604845 
2.594350 
2.598609 
2.585701 
2.600830 
2.592453 
2.590215 
2.579447 
2.584525 
2.573724 
2.586773 
2.586651 
2.582897 
2.580367 
2.568722 
2.550422 
2.575558 
2.580194 
2.556478 
2.519290 
2.537465 
2.547053 
2.540165 
2.547528 
2.554263 
2.580225 
2.578444 
2.575480 
2.575123 
2.580122 
2.596351 
2.568916 
2.556443 
2.568659 
2.567422 
2.571866 
2.591514 
2.594077 
2.582567 
2.573660 
2.568373 
2.571587 
2.559214 
2.545123 
2.544573 
2.564463 
2.555951 
2.560199 
2.549353 
2.541720 
2.565009 
2.539390 
2.535840 
2.546472 
2.542074 
2.550601 
2.542768 
2.536823 
2.555378 
2.549057 
2.554710 
2.541844 
2.537461 
2.544845 
2.547223 
2.567149 
2.557090 
2.555272 
2.549139 
2.574805 
2.566308 
2.574495 
2.575907 
2.564102 
2.550563 
2.549385 
2.542489 
2.539911 
2.557037 
2.550311 
2.562897 
2.572520 
2.563676 
2.537274 
2.557039 
2.558610 
2.538234 
2.563786 
2.563933 
2.543281 
2.534099 
2.529963 
2.574028 
2.538788 
2.536408 
2.580577 
2.568830 
2.548015 
2.541688 
2.543493 
2.559308 
2.559317 
2.567141 
2.550691 
2.536713 
2.513375 
2.528692 
2.568964 
2.557819 
2.556638 
2.535189 
2.555284 
2.536042 
2.535418 
2.561848 
2.564195 
2.574003 
2.571868 
2.572533 
2.555233 
2.537893 
2.556926 
2.558151 
2.546305 
2.540277 
2.547183 
2.534752 
2.504223 
2.504042 
2.523570 
2.535907 
2.539921 
2.535534 
2.538805 
2.536280 
2.539532 
2.543268 
2.540794 
2.542157 
2.537000 
2.529472 
2.533288 
2.557864 
2.571516 
2.561011 
2.551557 
2.573995 
2.568194 
2.553116 
2.533603 
2.526942 
2.548015 
2.552325 
2.545364 
2.556080 
2.551424 
2.543857 
2.542512 
2.564024 
2.554372 
2.544705 
2.549470 
2.555569 
2.556036 
2.552293 
2.549638 
2.544197 
2.558256 
2.562909 
2.555565 
2.534091 
2.527774 
2.538647 
2.552974 
2.561276 
2.535841 
2.509502 
2.509378 
2.543807 
2.541958 
2.561189 
2.554820 
2.525337 
2.525176 
2.532883 
2.532298 
2.519173 
2.502543 
2.496980 
2.542733 
2.538715 
2.541418 
2.569498 
2.569003 
2.573165 
2.555743 
2.532686 
2.548853 
2.556544 
2.566931 
2.580638 
2.551783 
2.532585 
2.538215 
2.538346 
2.530381 
2.527401 
2.533748 
2.541769 
2.549937 
2.547042 
2.539263 
2.523555 
2.528217 
2.542595 
2.531589 
2.534706 
2.531678 
2.522400 
2.518423 
2.514992 
2.524906 
2.537229 
2.524579 
2.520502 
2.533032 
2.531141 
2.546860 
2.553626 
2.564778 
2.548976 
2.534750 
2.523269 
2.521464 
2.522786 
2.521607 
2.529571 
2.542727 
2.533011 
2.532478 
2.539044 
2.530970 
2.518446 
2.520601 
2.532534 
2.531834 
2.530172 
2.518271 
2.510006 
2.506033 
2.506327 
2.510985 
2.549661 
2.554058 
2.542795 
2.530986 
2.518991 
2.510715 
2.525499 
2.550661 
2.551777 
2.534083 
2.526282 
2.542078 
2.539602 
2.550227 
2.551093 
2.539280 
2.548220 
2.555864 
2.549014 
2.553286 
2.529630 
2.517726 
2.515389 
2.521998 
2.541064 
2.534759 
2.522879 
2.527729 
2.536243 
2.549894 
2.532580 
2.526869 
2.527943 
2.536690 
2.531977 
2.518198 
2.529602 
2.542152 
2.540950 
2.541786 
2.551035 
2.555971 
2.540596 
2.534865 
2.547582 
2.534037 
2.534115 
2.549082 
2.549617 
2.549547 
2.535834 
2.528594 
2.527719 
2.530394 
2.511631 
2.522650 
2.538640 
2.551816 
2.529341 
2.525268 
2.530102 
2.543418 
2.515456 
2.509235 
2.531887 
2.531257 
2.519651 
2.518648 
2.538849 
2.514263 
2.492091 
2.503184 
2.519366 
2.516350 
2.507346 
2.498241 
2.493838 
2.504226 
2.506483 
2.510279 
2.513844 
2.524086 
2.532951 
2.535657 
2.530269 
2.531628 
2.541697 
2.524091 
2.511496 
2.507779 
2.506571 
2.522608 
2.532987 
2.531755 
2.543904 
2.537646 
2.528897 
2.526352 
2.540762 
2.534722 
2.531914 
2.530676 
2.531641 
2.537737 
2.530147 
2.519687 
2.510880 
2.506412 
2.496650 
2.496809 
2.506499 
2.514898 
2.508147 
2.529044 
2.536619 
2.554917 
2.549278 
2.538350 
2.533862 
2.536156 
2.535295 
2.534199 
2.536141 
2.531850 
2.531659 
2.527744 
2.522120 
2.514779 
2.517699 
2.519490 
2.518514 
2.519460 
2.521934 
2.523449 
2.522116 
2.524422 
2.522789 
2.520997 
2.519350 
2.523978 
2.524402 
2.519737 
2.523251 
2.527229 
2.528614 
2.527702 
2.520870 
2.524702 
2.531739 
2.544638 
2.545053 
2.536882 
2.540093 
2.548003 
2.537380 
2.533118 
2.523399 
2.515939 
2.537350 
2.533553 
2.542616 
2.552473 
2.537390 
2.533555 
2.536537 
2.553929 
2.551911 
2.544115 
2.553657 
2.556403 
2.549718 
2.528595 
2.513639 
2.501411 
2.489945 
2.492860 
2.499638 
2.500379 
2.528531 
2.531730 
2.503796 
2.503986 
2.526131 
2.514419 
2.519337 
2.542285 
2.539796 
2.539556 
2.546269 
2.539072 
2.542433 
2.527078 
2.519069 
2.519057 
2.531906 
2.508630 
2.504179 
2.514181 
2.510844 
2.516148 
2.521868 
2.520228 
2.535776 
2.530464 
2.539974 
2.536807 
2.533844 
2.518141 
2.516856 
2.522756 
2.521820 
2.519142 
2.524147 
2.529926 
2.529285 
2.531194 
2.527891 
2.527743 
2.524044 
2.520752 
2.522464 
2.524825 
2.518586 
2.527198 
2.523336 
2.527613 
2.533459 
2.533469 
2.530909 
2.533187 
2.534284 
2.528023 
2.526165 
2.529944 
2.528902 
2.536024 
2.548120 
2.543200 
2.541580 
2.525436 
2.516406 
2.538432 
2.552774 
2.553968 
2.554470 
2.572370 
2.561323 
2.557498 
2.547715 
2.546298 
2.534713 
2.526010 
2.523156 
2.553086 
2.552108 
2.545179 
2.548370 
2.538031 
2.526591 
2.525740 
2.541963 
2.531515 
2.520772 
2.522661 
2.522068 
2.525507 
2.519408 
2.517103 
2.516273 
2.511379 
2.513826 
2.509356 
2.510260 
2.539540 
2.538747 
2.539406 
2.540216 
2.538266 
2.546454 
2.539740 
2.546598 
2.535339 
2.531526 
2.514716 
2.515870 
2.515758 
2.550692 
2.573370 
2.569349 
2.545038 
2.538505 
2.547651 
2.578911 
2.593732 
2.602050 
2.613344 
2.617423 
2.616025 
2.620948 
2.613815 
2.598181 
2.579659 
2.565626 
2.550493 
2.538777 
2.534698 
2.527679 
2.527694 
2.536519 
2.547392 
2.551581 
2.567945 
2.618200 
2.658415 
2.657838 
2.652874 
2.649449 
2.649007 
2.648748 
2.720964 
2.729423 
2.732701 
2.719658 
2.711942 
2.693592 
2.683104 
2.689815 
2.669029 
2.654898 
2.661584 
2.650784 
2.659205 
2.667491 
2.660791 
2.656919 
2.667477 
2.682080 
2.688637 
2.695027 
2.719824 
2.691790 
2.707868 
2.680700 
2.644564 
2.617878 
2.578299 
2.579929 
2.567930 
2.575964 
2.547356 
2.516556 
2.495792 
2.479352 
2.461841 
2.468589 
2.505096 
2.503389 
2.499722 
2.500043 
2.501803 
2.502983 
2.502482 
2.503352 
2.538217 
2.536783 
2.518430 
2.514379 
2.513398 
2.527648 
2.527913 
2.535671 
2.548120 
2.562629 
2.563792 
2.570753 
2.570065 
2.578924 
2.586492 
2.588193 
2.581360 
2.576968 
2.564785 
2.557874 
2.555239 
2.550210 
2.545313 
2.544381 
2.541596 
2.541251 
2.543838 
2.551865 
2.555008 
2.561384 
2.570712 
2.572654 
2.571734 
2.570977 
2.571450 
2.571040 
2.571051 
2.573663 
2.568463 
2.569335 
2.568896 
2.564021 
2.566418 
2.566882 
2.555855 
2.559668 
2.558854 
2.553590 
2.555581 
2.557063 
2.560554 
2.555983 
2.558224 
2.560087 
2.550388 
2.542475 
2.541250 
2.542248 
2.543199 
2.547771 
2.550949 
2.552899 
2.555693 
2.558433 
2.559608 
2.561215 
2.559086 
2.553459 
2.561916 
2.557669 
2.560435 
2.559729 
2.557149 
2.554049 
2.555233 
2.548976 
2.550514 
2.550841 
2.550370 
2.556375 
2.550480 
2.558957 
2.566427 
2.566908 
2.567097 
2.560467 
2.557126 
2.559996 
2.562106 
2.559213 
2.554040 
2.549691 
2.545618 
2.545066 
2.549945 
2.542516 
2.542555 
2.547272 
2.554466 
2.562788 
2.557509 
2.546679 
2.590503 
2.611007 
2.595390 
2.594042 
2.584037 
2.583517 
2.607746 
2.591222 
2.587010 
2.588302 
2.584132 
2.584869 
2.585571 
2.566977 
2.544369 
2.534428 
2.528445 
2.549291 
2.546513 
2.532914 
2.537392 
2.544493 
2.547167 
2.527320 
2.530701 
2.564955 
2.557641 
2.542304 
2.522055 
2.515497 
2.515446 
2.514268 
2.511964 
2.531426 
2.546073 
2.551110 
2.544038 
2.536056 
2.535673 
2.535020 
2.529770 
2.535530 
2.532078 
2.529744 
2.531569 
2.527806 
2.521474 
2.527427 
2.545127 
2.559366 
2.557206 
2.544001 
2.533976 
2.523924 
2.515824 
2.518174 
2.525860 
2.526072 
2.543291 
2.553893 
2.569194 
2.567854 
2.569109 
2.540398 
2.536124 
2.528311 
2.527041 
2.535511 
2.539452 
2.547209 
2.544563 
2.548332 
2.540746 
2.536384 
2.532427 
2.531101 
2.536538 
2.533442 
2.533457 
2.535332 
2.533570 
2.540175 
2.551671 
2.555090 
2.549702 
2.548420 
2.533062 
2.520329 
2.528476 
2.545844 
2.540502 
2.528118 
2.516517 
2.520679 
2.541408 
2.526566 
2.537015 
2.537646 
2.532596 
2.538830 
2.532088 
2.520161 
2.511266 
2.538923 
2.547038 
2.538952 
2.523249 
2.521020 
2.515519 
2.524753 
2.526192 
2.550928 
2.554582 
2.559192 
2.557396 
2.545219 
2.524378 
2.511992 
2.506894 
2.506624 
2.511039 
2.517342 
2.526050 
2.527992 
2.537447 
2.543878 
2.547523 
2.537614 
2.552005 
2.567534 
2.550561 
2.536382 
2.531949 
2.517089 
2.507986 
2.509009 
2.511262 
2.510794 
2.526688 
2.548606 
2.561376 
2.575218 
2.569853 
2.556254 
2.549972 
2.542067 
2.542902 
2.525331 
2.517126 
2.514657 
2.515545 
2.514064 
2.517425 
2.537008 
2.551993 
2.560205 
2.552177 
2.549703 
2.554746 
2.561355 
2.544600 
2.537166 
2.548425 
2.561594 
2.552380 
2.540063 
2.535960 
2.545464 
2.536252 
2.539255 
2.543450 
2.555448 
2.547999 
2.543716 
2.535225 
2.540655 
2.540565 
2.536596 
2.539198 
2.539845 
2.540714 
2.539755 
2.534817 
2.528152 
2.532060 
2.556743 
2.550457 
2.537942 
2.525917 
2.524656 
2.534008 
2.533300 
2.531573 
2.546291 
2.558012 
2.546472 
2.532980 
2.536666 
2.553237 
2.572814 
2.568463 
2.547581 
2.548241 
2.559197 
2.543043 
2.533803 
2.547143 
2.550370 
2.539819 
2.522635 
2.516410 
2.516880 
2.513203 
2.511744 
2.515595 
2.535108 
2.547058 
2.571874 
2.547044 
2.534852 
2.534212 
2.547445 
2.542269 
2.559197 
2.584968 
2.583940 
2.561315 
2.546950 
2.538483 
2.534248 
2.532456 
2.541073 
2.552263 
2.554745 
2.557562 
2.557045 
2.546949 
2.544488 
2.542504 
2.535617 
2.529174 
2.532307 
2.529724 
2.531208 
2.530093 
2.536884 
2.529419 
2.524048 
2.571806 
2.585724 
2.566965 
2.566481 
2.566054 
2.557027 
2.547413 
2.540650 
2.533111 
2.521771 
2.539501 
2.557966 
2.556420 
2.560111 
2.546960 
2.549934 
2.558872 
2.559981 
2.562261 
2.560169 
2.548253 
2.542076 
2.539668 
2.529955 
2.522907 
2.532696 
2.544830 
2.535612 
2.528694 
2.529101 
2.516786 
2.520365 
2.528496 
2.544453 
2.548212 
2.546804 
2.544475 
2.555192 
2.549557 
2.545256 
2.533240 
2.544087 
2.559339 
2.558788 
2.557462 
2.537870 
2.526977 
2.545990 
2.559365 
2.552087 
2.528981 
2.504696 
2.500089 
2.501320 
2.518774 
2.517844 
2.538376 
2.529480 
2.527002 
2.534807 
2.523420 
2.513186 
2.510394 
2.518318 
2.531060 
2.551719 
2.568475 
2.573442 
2.552403 
2.543787 
2.546937 
2.538095 
2.527004 
2.539103 
2.534651 
2.527722 
2.514216 
2.513712 
2.544619 
2.536261 
2.522507 
2.513510 
2.503390 
2.539797 
2.563669 
2.560504 
2.552377 
2.550264 
2.547242 
2.527806 
2.529592 
2.535938 
2.543774 
2.541651 
2.542081 
2.535755 
2.521425 
2.521405 
2.530148 
2.517445 
2.528698 
2.529071 
2.536758 
2.558500 
2.542132 
2.543494 
2.570773 
2.573367 
2.562609 
2.540270 
2.530079 
2.525440 
2.532987 
2.561015 
2.541998 
2.548480 
2.550474 
2.562937 
2.559665 
2.543489 
2.531446 
2.525206 
2.536808 
2.548176 
2.555295 
2.554526 
2.554021 
2.556505 
2.562676 
2.565762 
2.555634 
2.542646 
2.542721 
2.533544 
2.536903 
2.537758 
2.541839 
2.560741 
2.578151 
2.582237 
2.563048 
2.556243 
2.551401 
2.552910 
2.543394 
2.531646 
2.513439 
2.520478 
2.561854 
2.559248 
2.556479 
2.564742 
2.570378 
2.569324 
2.562712 
2.561836 
2.572318 
2.572989 
2.563736 
2.559990 
2.550289 
2.550305 
2.540727 
2.538124 
2.539216 
2.537719 
2.535258 
2.534367 
2.539089 
2.541578 
2.541467 
2.532159 
2.537335 
2.561903 
2.563864 
2.558734 
2.544100 
2.556083 
2.564411 
2.568058 
2.549342 
2.548092 
2.540781 
2.534841 
2.534277 
2.533345 
2.543151 
2.552868 
2.548723 
2.536617 
2.539605 
2.542182 
2.548769 
2.546403 
2.539386 
2.535846 
2.529790 
2.526475 
2.539779 
2.545388 
2.559663 
2.567907 
2.559316 
2.541296 
2.540845 
2.538219 
2.536995 
2.537196 
2.536118 
2.538660 
2.545299 
2.549646 
2.549249 
2.543746 
2.555106 
2.565920 
2.569138 
2.570075 
2.569832 
2.571863 
2.572499 
2.577407 
2.582694 
2.581486 
2.593383 
2.597810 
2.594861 
2.594992 
2.599274 
2.605183 
2.611573 
2.618709 
2.611393 
2.615262 
2.618556 
2.623550 
2.623100 
2.616198 
2.616535 
2.616560 
2.612963 
2.601380 
2.602282 
2.617995 
2.619960 
2.621191 
2.603540 
2.605039 
2.613791 
2.609093 
2.600918 
2.599603 
2.599943 
2.601731 
2.604403 
2.599906 
2.601158 
2.599418 
2.610571 
2.617692 
2.620725 
2.612028 
2.606301 
2.595931 
2.579314 
2.575007 
2.567215 
2.566632 
2.558272 
2.549392 
2.547911 
2.542588 
2.540831 
2.534580 
2.520488 
2.518300 
2.513581 
2.537324 
2.543919 
2.555152 
2.566418 
2.567060 
2.560009 
2.557763 
2.556143 
2.558435 
2.552639 
2.544517 
2.539652 
2.535669 
2.533314 
2.519456 
2.507737 
2.501783 
2.501448 
2.503364 
2.501261 
2.523618 
2.546910 
2.532774 
2.528681 
2.541609 
2.546009 
2.543549 
2.539742 
2.529630 
2.524439 
2.526666 
2.523900 
2.516877 
2.517866 
2.516782 
2.532881 
2.555057 
2.557928 
2.538976 
2.530430 
2.525140 
2.528955 
2.525547 
2.517445 
2.514922 
2.504194 
2.500389 
2.504943 
2.523086 
2.536509 
2.534374 
2.523874 
2.509012 
2.510544 
2.505246 
2.514720 
2.519760 
2.522784 
2.538797 
2.523612 
2.510629 
2.515673 
2.536631 
2.532559 
2.538669 
2.539489 
2.534489 
2.539236 
2.521604 
2.512783 
2.506445 
2.523592 
2.518914 
2.513138 
2.531221 
2.553914 
2.543313 
2.519882 
2.521169 
2.508067 
2.496562 
2.494224 
2.499421 
2.492933 
2.522920 
2.521273 
2.503757 
2.501509 
2.506266 
2.509238 
2.520710 
2.521501 
2.509412 
2.500328 
2.495718 
2.504914 
2.508420 
2.500631 
2.502498 
2.520724 
2.523706 
2.545960 
2.529277 
2.539580 
2.527828 
2.523140 
2.522068 
2.533113 
2.527341 
2.522352 
2.510792 
2.497983 
2.499647 
2.510829 
2.519383 
2.510590 
2.537759 
2.555581 
2.538422 
2.534065 
2.541425 
2.541211 
2.534227 
2.526515 
2.532350 
2.545080 
2.524908 
2.510359 
2.501492 
2.496818 
2.506673 
2.510526 
2.519355 
2.531268 
2.531800 
2.517764 
2.505686 
2.517710 
2.531346 
2.515648 
2.507761 
2.516640 
2.535538 
2.527783 
2.524385 
2.535322 
2.525212 
2.521475 
2.507890 
2.490558 
2.493210 
2.499605 
2.499260 
2.503399 
2.529195 
2.536947 
2.536054 
2.518090 
2.512729 
2.516063 
2.515807 
2.508385 
2.505283 
2.510849 
2.514227 
2.526420 
2.538025 
2.551894 
2.530875 
2.513099 
2.512486 
2.512571 
2.509722 
2.503585 
2.502928 
2.505466 
2.503105 
2.511095 
2.510944 
2.513523 
2.511500 
2.507736 
2.505538 
2.510040 
2.506728 
2.510385 
2.510208 
2.502601 
2.498106 
2.501318 
2.499652 
2.493672 
2.487330 
2.487072 
2.486459 
2.485245 
2.486646 
2.503414 
2.504586 
2.492137 
2.489863 
2.502105 
2.509993 
2.523091 
2.522301 
2.508955 
2.499337 
2.501555 
2.514750 
2.515757 
2.499422 
2.491981 
2.492277 
2.495851 
2.514511 
2.521226 
2.498580 
2.490274 
2.497112 
2.515077 
2.521295 
2.505010 
2.499449 
2.491696 
2.499277 
2.520995 
2.536907 
2.534667 
2.532925 
2.523968 
2.528557 
2.525538 
2.518526 
2.512260 
2.505914 
2.507729 
2.515354 
2.515086 
2.509970 
2.503025 
2.501945 
2.519696 
2.527529 
2.528909 
2.543268 
2.534135 
2.530115 
2.524321 
2.524749 
2.516719 
2.504880 
2.509145 
2.504011 
2.502726 
2.508197 
2.511282 
2.516654 
2.504809 
2.507458 
2.509332 
2.505835 
2.505286 
2.500357 
2.492198 
2.494775 
2.503246 
2.502810 
2.502758 
2.496727 
2.500120 
2.504702 
2.500903 
2.501545 
2.495953 
2.492095 
2.490376 
2.502127 
2.496838 
2.489662 
2.501717 
2.507252 
2.507292 
2.497619 
2.513101 
2.518049 
2.511665 
2.506807 
2.511191 
2.516941 
2.505865 
2.501254 
2.501238 
2.496717 
2.499375 
2.526426 
2.532377 
2.516545 
2.502313 
2.492697 
2.505125 
2.522715 
2.536999 
2.519506 
2.511503 
2.509060 
2.516483 
2.535985 
2.540273 
2.537310 
2.537257 
2.541136 
2.527834 
2.512944 
2.523433 
2.520946 
2.525221 
2.559496 
2.561093 
2.545893 
2.514538 
2.493552 
2.490467 
2.496961 
2.526026 
2.548622 
2.552746 
2.560733 
2.563007 
2.547133 
2.517275 
2.517927 
2.532073 
2.515705 
2.513643 
2.522651 
2.520997 
2.514095 
2.525501 
2.512778 
2.511128 
2.528319 
2.529426 
2.507543 
2.498584 
2.503761 
2.513921 
2.510171 
2.539742 
2.539500 
2.545648 
2.559186 
2.555642 
2.543769 
2.542331 
2.522333 
2.509007 
2.510434 
2.517511 
2.527032 
2.513185 
2.502933 
2.507042 
2.512054 
2.510681 
2.510525 
2.501123 
2.514592 
2.546623 
2.543269 
2.525118 
2.506456 
2.520346 
2.528476 
2.535904 
2.522377 
2.514120 
2.512462 
2.501328 
2.488694 
2.492918 
2.507721 
2.518215 
2.526734 
2.537694 
2.518398 
2.501378 
2.513391 
2.511849 
2.528348 
2.515611 
2.508955 
2.499562 
2.499032 
2.495582 
2.509808 
2.509205 
2.524323 
2.533091 
2.550088 
2.549153 
2.548378 
2.525481 
2.535807 
2.559807 
2.554437 
2.544121 
2.548392 
2.539030 
2.526397 
2.506215 
2.513868 
2.505534 
2.505849 
2.513684 
2.518249 
2.539201 
2.534341 
2.538611 
2.543500 
2.543381 
2.525613 
2.518951 
2.516328 
2.529191 
2.538882 
2.538334 
2.534097 
2.529916 
2.556037 
2.552021 
2.554018 
2.553055 
2.548420 
2.548722 
2.535911 
2.505321 
2.487112 
2.478138 
2.467656 
2.461655 
2.474266 
2.522542 
2.546362 
2.547802 
2.550624 
2.566839 
2.560137 
2.548375 
2.543882 
2.538469 
2.542156 
2.539259 
2.518887 
2.512688 
2.528164 
2.531235 
2.533715 
2.548825 
2.543712 
2.534409 
2.541594 
2.534138 
2.543641 
2.538847 
2.540434 
2.536939 
2.535088 
2.548382 
2.527662 
2.526838 
2.538195 
2.525357 
2.509386 
2.517582 
2.508980 
2.517077 
2.521763 
2.522278 
2.531139 
2.550093 
2.531133 
2.552353 
2.542751 
2.533662 
2.540049 
2.531233 
2.538480 
2.528585 
2.515946 
2.518863 
2.522024 
2.524853 
2.514700 
2.526008 
2.517383 
2.511748 
2.537198 
2.538576 
2.539360 
2.511757 
2.504135 
2.515529 
2.524590 
2.526937 
2.535443 
2.534827 
2.547258 
2.560995 
2.568502 
2.565552 
2.546800 
2.525038 
2.514702 
2.522470 
2.518623 
2.529218 
2.557070 
2.534740 
2.510659 
2.509201 
2.530123 
2.553352 
2.552378 
2.528591 
2.518873 
2.530629 
2.556109 
2.558458 
2.554063 
2.552901 
2.557327 
2.566749 
2.553072 
2.540406 
2.546686 
2.563346 
2.558211 
2.581311 
2.579181 
2.579828 
2.583200 
2.579504 
2.573636 
2.556115 
2.540332 
2.528954 
2.526056 
2.530231 
2.528772 
2.518115 
2.525990 
2.520934 
2.505920 
2.501835 
2.496893 
2.527128 
2.540036 
2.527860 
2.520318 
2.553823 
2.550338 
2.559065 
2.555907 
2.544566 
2.540805 
2.523582 
2.535066 
2.547843 
2.545520 
2.561864 
2.549802 
2.543372 
2.539061 
2.515750 
2.504242 
2.507771 
2.525215 
2.534754 
2.529505 
2.521676 
2.514636 
2.515044 
2.525196 
2.538099 
2.548793 
2.529635 
2.524251 
2.532149 
2.553552 
2.564833 
2.554203 
2.560280 
2.560079 
2.528874 
2.525551 
2.532702 
2.549729 
2.567627 
2.575279 
2.575469 
2.580966 
2.584927 
2.575755 
2.562529 
2.559906 
2.548375 
2.524245 
2.503811 
2.494507 
2.495633 
2.489221 
2.481280 
2.519011 
2.566873 
2.560699 
2.537116 
2.538806 
2.539172 
2.551456 
2.541762 
2.537605 
2.534541 
2.536026 
2.531963 
2.532619 
2.528537 
2.513337 
2.511928 
2.541038 
2.557517 
2.537149 
2.516390 
2.504209 
2.494654 
2.511727 
2.517523 
2.526076 
2.539276 
2.538942 
2.531195 
2.530012 
2.517759 
2.508679 
2.495247 
2.537650 
2.541692 
2.529341 
2.526994 
2.532099 
2.517326 
2.523934 
2.540281 
2.536779 
2.532279 
2.525194 
2.536430 
2.529043 
2.529082 
2.518266 
2.518861 
2.528286 
2.518991 
2.511191 
2.540152 
2.542306 
2.529758 
2.548028 
2.538975 
2.546100 
2.534356 
2.534804 
2.535664 
2.518461 
2.519561 
2.525768 
2.531150 
2.527220 
2.530269 
2.526660 
2.536125 
2.528505 
2.522407 
2.515129 
2.513592 
2.515052 
2.514591 
2.519613 
2.513846 
2.515138 
2.515302 
2.522821 
2.523070 
2.520835 
2.518511 
2.536323 
2.543897 
2.544119 
2.536471 
2.523773 
2.525607 
2.530002 
2.532417 
2.524331 
2.519885 
2.510209 
2.506005 
2.517050 
2.555029 
2.567470 
2.547218 
2.541816 
2.530387 
2.526529 
2.514205 
2.521142 
2.514835 
2.504491 
2.513477 
2.512362 
2.515462 
2.518235 
2.526744 
2.536083 
2.532598 
2.545081 
2.548403 
2.528777 
2.514459 
2.507472 
2.506452 
2.504705 
2.517518 
2.536381 
2.549287 
2.554474 
2.558747 
2.550777 
2.554825 
2.555584 
2.557815 
2.559528 
2.560785 
2.561239 
2.558112 
2.555255 
2.549588 
2.553940 
2.550048 
2.549371 
2.540068 
2.533856 
2.539763 
2.542348 
2.544360 
2.548166 
2.552774 
2.555584 
2.559261 
2.557195 
2.553970 
2.554977 
2.560235 
2.564103 
2.563731 
2.555724 
2.551956 
2.549861 
2.543302 
2.537298 
2.533114 
2.531316 
2.536366 
2.530577 
2.530144 
2.524274 
2.523668 
2.515682 
2.512160 
2.503577 
2.504923 
2.501986 
2.527028 
2.544913 
2.553366 
2.565635 
2.558806 
2.555496 
2.545598 
2.552298 
2.546315 
2.531743 
2.537730 
2.539395 
2.548045 
2.557923 
2.562985 
2.561709 
