6.628231 
6.625917 
6.630468 
6.625995 
6.627709 
6.629586 
6.628647 
6.628614 
6.628910 
6.626905 
6.625580 
6.630575 
6.628757 
6.628809 
6.629701 
6.627321 
6.626871 
6.628231 
6.625535 
6.622974 
6.626122 
6.627562 
6.624094 
6.627192 
6.628024 
6.628018 
6.625999 
6.622929 
6.625453 
6.626490 
6.624796 
6.625535 
6.625625 
6.622929 
6.625618 
6.626867 
6.627698 
6.625024 
6.629618 
6.627932 
6.628231 
6.629556 
6.626905 
6.625580 
6.630590 
6.626432 
6.625369 
6.629206 
6.624254 
6.626475 
6.627349 
6.629542 
6.626905 
6.625672 
6.629464 
6.628972 
6.627489 
6.629556 
6.626905 
6.623177 
6.625332 
6.624999 
6.623841 
6.624999 
6.621358 
6.622099 
6.624259 
6.621192 
6.619868 
6.619964 
6.622420 
6.621920 
6.621789 
6.622290 
6.618770 
6.617776 
6.619048 
6.616157 
6.614002 
6.613757 
6.609357 
6.608063 
6.610707 
6.613991 
6.612839 
6.615676 
6.613757 
6.610408 
6.608447 
6.606441 
6.608566 
6.613757 
6.612425 
6.618134 
6.618648 
6.615079 
6.612732 
6.614693 
6.617603 
6.615685 
6.619974 
6.620066 
6.618238 
6.618839 
6.617324 
6.614163 
6.615074 
6.613757 
6.614981 
6.618134 
6.622828 
6.622328 
6.625354 
6.625166 
6.622244 
6.625297 
6.625862 
6.623899 
6.625936 
6.626905 
6.626905 
6.629556 
6.627302 
6.627321 
6.628647 
6.625676 
6.624254 
6.626905 
6.628470 
6.627321 
6.626506 
6.626490 
6.624414 
6.625917 
6.626490 
6.624333 
6.623769 
6.622097 
6.621596 
6.623945 
6.623334 
6.622834 
6.624848 
6.626133 
6.622873 
6.625166 
6.624903 
6.622929 
6.624452 
6.623080 
6.621192 
6.622041 
6.623880 
6.620329 
6.622105 
6.620254 
6.619984 
6.620487 
6.617104 
6.618134 
6.620781 
6.620067 
6.620172 
6.622105 
6.619975 
6.621192 
6.618513 
6.616825 
6.615979 
6.617725 
6.618375 
6.617664 
6.619602 
6.619688 
6.619910 
6.619826 
6.615759 
6.620236 
6.618679 
6.618134 
6.617259 
6.617294 
6.617143 
6.613245 
6.620433 
6.619302 
6.620123 
6.622251 
6.618554 
6.618381 
6.617563 
6.619685 
6.619935 
6.623293 
6.622565 
6.620320 
6.625145 
6.622517 
6.618762 
6.623319 
6.622211 
6.621998 
6.624752 
6.620084 
6.617795 
6.621570 
6.617589 
6.617602 
6.619457 
6.622105 
6.618982 
6.621192 
6.622517 
6.620627 
6.623082 
6.623841 
6.621864 
6.623408 
6.622450 
6.621604 
6.623583 
6.622275 
6.622929 
6.622433 
6.622099 
6.621195 
6.623841 
6.623752 
6.619957 
6.621784 
6.623249 
6.622750 
6.625580 
6.623193 
6.621340 
6.621810 
6.623076 
6.623902 
6.625105 
6.625166 
6.623841 
6.624775 
6.624232 
6.621301 
6.626381 
6.625166 
6.624975 
6.625356 
6.624478 
6.626905 
6.629411 
6.625725 
6.624606 
6.627751 
6.623057 
6.623364 
6.626490 
6.625560 
6.622122 
6.626386 
6.625580 
6.626905 
6.627089 
6.622517 
6.623199 
6.623158 
6.623841 
6.623072 
6.624610 
6.618489 
6.616348 
6.619468 
6.618501 
6.618585 
6.621737 
6.619322 
6.618269 
6.620781 
6.619229 
6.619686 
6.622105 
6.620141 
6.620188 
6.623841 
6.619868 
6.621191 
6.621193 
6.619868 
6.622517 
6.618223 
6.616810 
6.615863 
6.620627 
6.620501 
6.624532 
6.625166 
6.623616 
6.629006 
6.626962 
6.626848 
6.626018 
6.623816 
6.622929 
6.622653 
6.620668 
6.618840 
6.622220 
6.622313 
6.618953 
6.624340 
6.620487 
6.621192 
6.622517 
6.622517 
6.619896 
6.622048 
6.623810 
6.623047 
6.626431 
6.624611 
6.621890 
6.625023 
6.625211 
6.623795 
6.624978 
6.623305 
6.624565 
6.626490 
6.626204 
6.625452 
6.626466 
6.621651 
6.622558 
6.622040 
6.619868 
6.621759 
6.622105 
6.619712 
6.618538 
6.620122 
6.616810 
6.617566 
6.618702 
6.616872 
6.618923 
6.618606 
6.618100 
6.610807 
6.612257 
6.611516 
6.613636 
6.612697 
6.610861 
6.612684 
6.616402 
6.614726 
6.616756 
6.621301 
6.618543 
6.618622 
6.619048 
6.620609 
6.618543 
6.619591 
6.621469 
6.620967 
6.619906 
6.622105 
6.616492 
6.617038 
6.617399 
6.619452 
6.620287 
6.621188 
6.619360 
6.621795 
6.625070 
6.622517 
6.622698 
6.622105 
6.618774 
6.621465 
6.622105 
6.619232 
6.623654 
6.623479 
6.622980 
6.623378 
6.623806 
6.618953 
6.620570 
6.618790 
6.618543 
6.621824 
6.620560 
6.620057 
6.622448 
6.619747 
6.621192 
6.620985 
6.616506 
6.615486 
6.619046 
6.613757 
6.606239 
6.594987 
6.597032 
6.588412 
6.594096 
6.595665 
6.596161 
6.599879 
6.601062 
6.601578 
6.603300 
6.601208 
6.600762 
6.601331 
6.599483 
6.601837 
6.606881 
6.609028 
6.612434 
6.615079 
6.613674 
6.612516 
6.614350 
6.611840 
6.613540 
6.613973 
6.613462 
6.613827 
6.612141 
6.609902 
6.612829 
6.610712 
6.610195 
6.610007 
6.608983 
6.605020 
6.606341 
6.605192 
6.603527 
6.604050 
6.604620 
6.599784 
6.602857 
6.608350 
6.606819 
6.609385 
6.609193 
6.605612 
6.610096 
6.606341 
6.603699 
6.606341 
6.604588 
6.604164 
6.604987 
6.603699 
6.602693 
6.607346 
6.606308 
6.607695 
6.610431 
6.609916 
6.611498 
6.613351 
6.611552 
6.609862 
6.612029 
6.612342 
6.613038 
6.615798 
6.615289 
6.614869 
6.615079 
6.613757 
6.611922 
6.613351 
6.612028 
6.612030 
6.614161 
6.612434 
6.613757 
6.618432 
6.615278 
6.615695 
6.618849 
6.617112 
6.617015 
6.618235 
6.616405 
6.618534 
6.619876 
6.619368 
6.620456 
6.620781 
6.620190 
6.621372 
6.620781 
6.619416 
6.620822 
6.619457 
6.617357 
6.620600 
6.620415 
6.616810 
6.618595 
6.617620 
6.615894 
6.619102 
6.617984 
6.618803 
6.622257 
6.621192 
6.617219 
6.619459 
6.617627 
6.617219 
6.620228 
6.617292 
6.615513 
6.621693 
6.618519 
6.619457 
6.619167 
6.614453 
6.611958 
6.613351 
6.609973 
6.607809 
6.610304 
6.609081 
6.609330 
6.611095 
6.608466 
6.610347 
6.611875 
6.618235 
6.618538 
6.620122 
6.618294 
6.616082 
6.617378 
6.614103 
6.611970 
6.615092 
6.614163 
6.614764 
6.615440 
6.612284 
6.613906 
6.618390 
6.615486 
6.616495 
6.615237 
6.612434 
6.613757 
6.609788 
6.611972 
6.615486 
6.609496 
6.609565 
6.613172 
6.609385 
6.606742 
6.608063 
6.608063 
6.606742 
6.608462 
6.607662 
6.605020 
6.605020 
6.603699 
6.602655 
6.606063 
6.603699 
6.602378 
6.605787 
6.602931 
6.601057 
6.604593 
6.600660 
6.601980 
6.603599 
6.603075 
6.603001 
6.603525 
6.602551 
6.600442 
6.605541 
6.602472 
6.602491 
6.603665 
6.599973 
6.604591 
6.604016 
6.601980 
6.601980 
6.605277 
6.605420 
6.605337 
6.603314 
6.605075 
6.603644 
6.598996 
6.599340 
6.596284 
6.593875 
6.597625 
6.597625 
6.596768 
6.600660 
6.600660 
6.598020 
6.598615 
6.597625 
6.593859 
6.597434 
6.597625 
6.594987 
6.598945 
6.597148 
6.594230 
6.598859 
6.596306 
6.591481 
6.590414 
6.597027 
6.600660 
6.603333 
6.602378 
6.602870 
6.601980 
6.602283 
6.597643 
6.597003 
6.594823 
6.594595 
6.595913 
6.598599 
6.598501 
6.599364 
6.597515 
6.599340 
6.603984 
6.602378 
6.603539 
6.604620 
6.601616 
6.604985 
6.606376 
6.604533 
6.608148 
6.607662 
6.604415 
6.608267 
6.607662 
6.604296 
6.609385 
6.608063 
6.608063 
6.608501 
6.610236 
6.609788 
6.612982 
6.611886 
6.611372 
6.611508 
6.609131 
6.608614 
6.612503 
6.609572 
6.608466 
6.610232 
6.608022 
6.606061 
6.611545 
6.609709 
6.606935 
6.611835 
6.611322 
6.610093 
6.613351 
6.611213 
6.610615 
6.610294 
6.609779 
6.607402 
6.610975 
6.612311 
6.611748 
6.614443 
6.611111 
6.610533 
6.612029 
6.609448 
6.610178 
6.609852 
6.608013 
6.610758 
6.609385 
6.609222 
6.609310 
6.609625 
6.609108 
6.609662 
6.609385 
6.606742 
6.609396 
6.613340 
6.612850 
6.611208 
6.613351 
6.614780 
6.613243 
6.615995 
6.614574 
6.614772 
6.617421 
6.614267 
6.611417 
6.611621 
6.608462 
6.609507 
6.611509 
6.609385 
6.604048 
6.605705 
6.605020 
6.605020 
6.607306 
6.608063 
6.607616 
6.609832 
6.610639 
6.609454 
6.612769 
6.609609 
6.608422 
6.612657 
6.612144 
6.611286 
6.615194 
6.612037 
6.612822 
6.614673 
6.611023 
6.611713 
6.609385 
6.606124 
6.608895 
6.610681 
6.608466 
6.611438 
6.612029 
6.609866 
6.611985 
6.614175 
6.611516 
6.613926 
6.609385 
6.605420 
6.608723 
6.606341 
6.598415 
6.603163 
6.605555 
6.603712 
6.605914 
6.605433 
6.603699 
6.605759 
6.602271 
6.600895 
6.598785 
6.595700 
6.595380 
6.599296 
6.597647 
6.596306 
6.592586 
6.593157 
6.592620 
6.588658 
6.593153 
6.590763 
6.588003 
6.591958 
6.588961 
6.588363 
6.590820 
6.588933 
6.586298 
6.590250 
6.588933 
6.585419 
6.588494 
6.586193 
6.586684 
6.592604 
6.588675 
6.585238 
6.587903 
6.587328 
6.586298 
6.589891 
6.593427 
6.596131 
6.596263 
6.597844 
6.595993 
6.595380 
6.601980 
6.599340 
6.595489 
6.598890 
6.598945 
6.594795 
6.600251 
6.598429 
6.598020 
6.598020 
6.600660 
6.598020 
6.598085 
6.597625 
6.597029 
6.599541 
6.601779 
6.599932 
6.600068 
6.601980 
6.598480 
6.600663 
6.601451 
6.596766 
6.598492 
6.596227 
6.592739 
6.596857 
6.594248 
6.591029 
6.592798 
6.591074 
6.591958 
6.594020 
6.589253 
6.587582 
6.591433 
6.590114 
6.588293 
6.591144 
6.588003 
6.583856 
6.589513 
6.588003 
6.588120 
6.592168 
6.586357 
6.587556 
6.591568 
6.591384 
6.589413 
6.593276 
6.594355 
6.593668 
6.597079 
6.591575 
6.591022 
6.593675 
6.592348 
6.591449 
6.592997 
6.589961 
6.591606 
6.591669 
6.589812 
6.593223 
6.595432 
6.592348 
6.596885 
6.597046 
6.594081 
6.598648 
6.599825 
6.596700 
6.598407 
6.598953 
6.599277 
6.601375 
6.601328 
6.601788 
6.604605 
6.605435 
6.601057 
6.603453 
6.599504 
6.599340 
6.604573 
6.601057 
6.601631 
6.607087 
6.605020 
6.604324 
6.609385 
6.608063 
6.604912 
6.608983 
6.604997 
6.602401 
6.607662 
6.604752 
6.603966 
6.606341 
6.602378 
6.603699 
6.608440 
6.604806 
6.605776 
6.606341 
6.604520 
6.605619 
6.608883 
6.603079 
6.604539 
6.604799 
6.601633 
6.598266 
6.599263 
6.600225 
6.605898 
6.607662 
6.605343 
6.604573 
6.601382 
6.601247 
6.606078 
6.604565 
6.600132 
6.604859 
6.603789 
6.597324 
6.592552 
6.594668 
6.592348 
6.594797 
6.596496 
6.594643 
6.599289 
6.602481 
6.601057 
6.602455 
6.600980 
6.596380 
6.598020 
6.598020 
6.596700 
6.599340 
6.601980 
6.599786 
6.603331 
6.602667 
6.602776 
6.606622 
6.604419 
6.602182 
6.603300 
6.604293 
6.601127 
6.605332 
6.598489 
6.598081 
6.601583 
6.599087 
6.601249 
6.604413 
6.602793 
6.603699 
6.607662 
6.605504 
6.603652 
6.607224 
6.605383 
6.605215 
6.607104 
6.604777 
6.600745 
6.595583 
6.595091 
6.597023 
6.594595 
6.597127 
6.598654 
6.600060 
6.599172 
6.599281 
6.601583 
6.596004 
6.603396 
6.604030 
6.598974 
6.612029 
6.600342 
6.598600 
6.608217 
6.606341 
6.604345 
6.609658 
6.608983 
6.605550 
6.607522 
6.604630 
6.604107 
6.615179 
6.610098 
6.604201 
6.605349 
6.604168 
6.602776 
6.606345 
6.604495 
6.604098 
6.608933 
6.608516 
6.604234 
6.608247 
6.601724 
6.602570 
6.604620 
6.601869 
6.602409 
6.605623 
6.604262 
6.604979 
6.608542 
6.608389 
6.608256 
6.611473 
6.606493 
6.605692 
6.608311 
6.602378 
6.602124 
6.603556 
6.604094 
6.603300 
6.601457 
6.601310 
6.604494 
6.600009 
6.595228 
6.597367 
6.596306 
6.596306 
6.596313 
6.589703 
6.591573 
6.595763 
6.591268 
6.591479 
6.595913 
6.587911 
6.585821 
6.586775 
6.587548 
6.588679 
6.591282 
6.588003 
6.590301 
6.592296 
6.587631 
6.594945 
6.595029 
6.593668 
6.594987 
6.597898 
6.596700 
6.600917 
6.601864 
6.599736 
6.601831 
6.600283 
6.598415 
6.600255 
6.599340 
6.592472 
6.591695 
6.593001 
6.589710 
6.592141 
6.591657 
6.590609 
6.591629 
6.593068 
6.593491 
6.594948 
6.596522 
6.594669 
6.592593 
6.596379 
6.594526 
6.596834 
6.597886 
6.596700 
6.599543 
6.600264 
6.596893 
6.600996 
6.602964 
6.598477 
6.602843 
6.601912 
6.599736 
6.604886 
6.606282 
6.603892 
6.607055 
6.605312 
6.601454 
6.606612 
6.604228 
6.602856 
6.605941 
6.603497 
6.601948 
6.605776 
6.604569 
6.604672 
6.607261 
6.605648 
6.602681 
6.602892 
6.601046 
6.602914 
6.604484 
6.599995 
6.602782 
6.604620 
6.600793 
6.599999 
6.598945 
6.596303 
6.601980 
6.605415 
6.601057 
6.600522 
6.601592 
6.598415 
6.600921 
6.605156 
6.602378 
6.601057 
6.602883 
6.599230 
6.598659 
6.605819 
6.604654 
6.604586 
6.608739 
6.605020 
6.600469 
6.604222 
6.601121 
6.600726 
6.602806 
6.600960 
6.601680 
6.601754 
6.599736 
6.602563 
6.604835 
6.602378 
6.601936 
6.605462 
6.601057 
6.602062 
6.602587 
6.596093 
6.595200 
6.597453 
6.599736 
6.600964 
6.602026 
6.598859 
6.601141 
6.600660 
6.600048 
6.602592 
6.603300 
6.600500 
6.601163 
6.600317 
6.598468 
6.602852 
6.605792 
6.604423 
6.608927 
6.606875 
6.604098 
6.607456 
6.604705 
6.605505 
6.608812 
6.605908 
6.601561 
6.604222 
6.600463 
6.602704 
6.605541 
6.601531 
6.602666 
6.605829 
6.602601 
6.599246 
6.604189 
6.599736 
6.603464 
6.606576 
6.603956 
6.605428 
6.609377 
6.602776 
6.604348 
6.605555 
6.603712 
6.603274 
6.604921 
6.604098 
6.603235 
6.602268 
6.599340 
6.600503 
6.599497 
6.598020 
6.600637 
6.600684 
6.597514 
6.598636 
6.600549 
6.596700 
6.599585 
6.600415 
6.599340 
6.597078 
6.592336 
6.592360 
6.596306 
6.594856 
6.597492 
6.595250 
6.596306 
6.596430 
6.600660 
6.598425 
6.592376 
6.597217 
6.596140 
6.597004 
6.602750 
6.599585 
6.599906 
6.600094 
6.600359 
6.601788 
6.601153 
6.601980 
6.600426 
6.602069 
6.600806 
6.602629 
6.601057 
6.604771 
6.600264 
6.597625 
6.597615 
6.598020 
6.597241 
6.598798 
6.599340 
6.596700 
6.599621 
6.597739 
6.596700 
6.599340 
6.598020 
6.595958 
6.594595 
6.595749 
6.590803 
6.590639 
6.589635 
6.587688 
6.591495 
6.593275 
6.591179 
6.593202 
6.594693 
6.593397 
6.593057 
6.591958 
6.591006 
6.598239 
6.601085 
6.600734 
6.604021 
6.598120 
6.597331 
6.601349 
6.599501 
6.599941 
6.604814 
6.603734 
6.607627 
6.608983 
6.606177 
6.604867 
6.606658 
6.603495 
6.603903 
6.606341 
6.603699 
6.606268 
6.604620 
6.601529 
6.602431 
6.600660 
6.598758 
6.601426 
6.598045 
6.599736 
6.600372 
6.601662 
6.601136 
6.605465 
6.605852 
6.599780 
6.604269 
6.604278 
6.604326 
6.608527 
6.604728 
6.602669 
6.607662 
6.608572 
6.606763 
6.608972 
6.608455 
6.605674 
6.607535 
6.606369 
6.606559 
6.611379 
6.607459 
6.607865 
6.610304 
6.607228 
6.609416 
6.612876 
6.609385 
6.602635 
6.605941 
6.599752 
6.602285 
6.602584 
6.602059 
6.601426 
6.601136 
6.598020 
6.598656 
6.582464 
6.570677 
6.577089 
6.571616 
6.586111 
6.604490 
6.607655 
6.603185 
6.604328 
6.603300 
6.602021 
6.604579 
6.604620 
6.602329 
6.606912 
6.608619 
6.603699 
6.606341 
6.607498 
6.607143 
6.610987 
6.609912 
6.606937 
6.608778 
6.608359 
6.606965 
6.609474 
6.610707 
6.609385 
6.612029 
6.611492 
6.610056 
6.611625 
6.608334 
6.609385 
6.613351 
6.609947 
6.608823 
6.611982 
6.605467 
6.603252 
6.603776 
6.603944 
6.603256 
6.604222 
6.594987 
6.595138 
6.598453 
6.600772 
6.607606 
6.609843 
6.608004 
6.610767 
6.609960 
6.609618 
6.608578 
6.612665 
6.611111 
6.613633 
6.612823 
6.607808 
6.612800 
6.609398 
6.607559 
6.609890 
6.610707 
6.609474 
6.613263 
6.613351 
6.611179 
6.615206 
6.613668 
6.610369 
6.612793 
6.611583 
6.610171 
6.613908 
6.610577 
6.606872 
6.608712 
6.604771 
6.605420 
6.607511 
6.608249 
6.607143 
6.610236 
6.608501 
6.605502 
6.608983 
6.607062 
6.605620 
6.607662 
6.606341 
6.604019 
6.605941 
6.602093 
6.603632 
6.604131 
6.602378 
6.604268 
6.605771 
6.606572 
6.605478 
6.607261 
6.600552 
6.598945 
6.602484 
6.597995 
6.599364 
6.604070 
6.602378 
6.604527 
6.602871 
6.602378 
6.603458 
6.605260 
6.601974 
6.602786 
6.602373 
6.601057 
6.605151 
6.606478 
6.604098 
6.604859 
6.601871 
6.599196 
6.601980 
6.605957 
6.604531 
6.611111 
6.608565 
6.606742 
6.608682 
6.609874 
6.606957 
6.610118 
6.606009 
6.604098 
6.608063 
6.607612 
6.605972 
6.610253 
6.605772 
6.605588 
6.607662 
6.605653 
6.605708 
6.606228 
6.605132 
6.606341 
6.608983 
6.608057 
6.608587 
6.610183 
6.605699 
6.606423 
6.605941 
6.604779 
6.599947 
6.601215 
6.600688 
6.603272 
6.603300 
6.599340 
6.603003 
6.602278 
6.599340 
6.601812 
6.602148 
6.601623 
6.602338 
6.601980 
6.600174 
6.606254 
6.608063 
6.605420 
6.606947 
6.607662 
6.603699 
6.605020 
6.604947 
6.600279 
6.606322 
6.607161 
6.603125 
6.610928 
6.608649 
6.608466 
6.612476 
6.612114 
6.610066 
6.613225 
6.613903 
6.610192 
6.614636 
6.613690 
6.610457 
6.611625 
6.610421 
6.611310 
6.617317 
6.612644 
6.611414 
6.614776 
6.611619 
6.611425 
6.612941 
6.609783 
6.610830 
6.612715 
6.611111 
6.609727 
6.611172 
6.606968 
6.607487 
6.608983 
6.607779 
6.608866 
6.608983 
6.601057 
6.598733 
6.600008 
6.596700 
6.597821 
6.600264 
6.595974 
6.597894 
6.599007 
6.597158 
6.598093 
6.594987 
6.588295 
6.591346 
6.594424 
6.591171 
6.607662 
6.606341 
6.602818 
6.605061 
6.608343 
6.604177 
6.608663 
6.605942 
6.605619 
6.607461 
6.606341 
6.602378 
6.608983 
6.609430 
6.605893 
6.606341 
6.607662 
6.603856 
6.605941 
6.604585 
6.605698 
6.607539 
6.607512 
6.607009 
6.608587 
6.606748 
6.607255 
6.610194 
6.606742 
6.608692 
6.610304 
6.606516 
6.606910 
6.606917 
6.605132 
6.605773 
6.603300 
6.601842 
6.603438 
6.606670 
6.603507 
6.602159 
6.603506 
6.599340 
6.597946 
6.600734 
6.598020 
6.599399 
6.603241 
6.600075 
6.601433 
6.600472 
6.597302 
6.601698 
6.602980 
6.598492 
6.602828 
6.601928 
6.601057 
6.604276 
6.602943 
6.598810 
6.602254 
6.599954 
6.598104 
6.602252 
6.597664 
6.596799 
6.598550 
6.596810 
6.597653 
6.601187 
6.598441 
6.600660 
6.607261 
6.604264 
6.603657 
6.604620 
6.602694 
6.603907 
6.605776 
6.599736 
6.598483 
6.602310 
6.599736 
6.600561 
6.604195 
6.601057 
6.599954 
6.596673 
6.598453 
6.607589 
6.607216 
6.604098 
6.602433 
6.602902 
6.596306 
6.589735 
6.588595 
6.590613 
6.584800 
6.586273 
6.588545 
6.585235 
6.586541 
6.585076 
6.583663 
6.587728 
6.589371 
6.589045 
6.591169 
6.590110 
6.589321 
6.594595 
6.594551 
6.592739 
6.596493 
6.595586 
6.596700 
6.600034 
6.598646 
6.598116 
6.601391 
6.600722 
6.595885 
6.600226 
6.599133 
6.597608 
6.601187 
6.598471 
6.597005 
6.600264 
6.601238 
6.601928 
6.608077 
6.602776 
6.603335 
6.608827 
6.605176 
6.604341 
6.607296 
6.611348 
6.608190 
6.607134 
6.607652 
6.606761 
6.607554 
6.606148 
6.607261 
6.608648 
6.607838 
6.606967 
6.612029 
6.609385 
6.601396 
6.602786 
6.604612 
6.603632 
6.602776 
6.605866 
6.606295 
6.601245 
6.603092 
6.602985 
6.602378 
6.599258 
6.600233 
6.599767 
6.598995 
6.600264 
6.601219 
6.605237 
6.608765 
6.605020 
6.601152 
6.607071 
6.605091 
6.601538 
6.605913 
6.604071 
6.603850 
6.608832 
6.605671 
6.605689 
6.608983 
6.608196 
6.604873 
6.608596 
6.608078 
6.605108 
6.609697 
6.605718 
6.607688 
6.609463 
6.608246 
6.608618 
6.611292 
6.608063 
6.606742 
6.609385 
6.606742 
6.607357 
6.608015 
6.604686 
6.605354 
6.607662 
6.606054 
6.609269 
6.609501 
6.607662 
6.609785 
6.607662 
6.605020 
6.610304 
6.606626 
6.605420 
6.610707 
6.610707 
6.609960 
6.612777 
6.610707 
6.605881 
6.609381 
6.606227 
6.605477 
6.608640 
6.608635 
6.604272 
6.608131 
6.607703 
6.607143 
6.610087 
6.605931 
6.605439 
6.604231 
6.597089 
6.596985 
6.602505 
6.598530 
6.599614 
6.604222 
6.599464 
6.601063 
6.604213 
6.599736 
6.600014 
6.601051 
6.598143 
6.596455 
6.599597 
6.593668 
6.593963 
6.593372 
6.596283 
6.593321 
6.594595 
6.593109 
6.595854 
6.595439 
6.594679 
6.597847 
6.596392 
6.592348 
6.596362 
6.597570 
6.595718 
6.595964 
6.597236 
6.594851 
6.598094 
6.595973 
6.592348 
6.595463 
6.598307 
6.596781 
6.599951 
6.597625 
6.593668 
6.595738 
6.593876 
6.592708 
6.597200 
6.594910 
6.591753 
6.597120 
6.593950 
6.592856 
6.596978 
6.595660 
6.594848 
6.599870 
6.597097 
6.598153 
6.602771 
6.598020 
6.598024 
6.601976 
6.599471 
6.601322 
6.603434 
6.602381 
6.601973 
6.602502 
6.598692 
6.599978 
6.598164 
6.598424 
6.600785 
6.601583 
6.598553 
6.601970 
6.594595 
6.590107 
6.596445 
6.600639 
6.599736 
6.601867 
6.602889 
6.601057 
6.605416 
6.603300 
6.601059 
6.605020 
6.604898 
6.601729 
6.609753 
6.607420 
6.605578 
6.609427 
6.608827 
6.605820 
6.610650 
6.604113 
6.602855 
6.608983 
6.607065 
6.604295 
6.606138 
6.603183 
6.603418 
6.607261 
6.604258 
6.603662 
6.608540 
6.604057 
6.603905 
6.608256 
6.603012 
6.604599 
6.606290 
6.602490 
6.605203 
6.606045 
6.603689 
6.605570 
6.605011 
6.604357 
6.602244 
6.605286 
6.599736 
6.602101 
6.602655 
6.602378 
6.604994 
6.603725 
6.601866 
6.606852 
6.600771 
6.595380 
6.600660 
6.599340 
6.599340 
6.601980 
6.600660 
6.599756 
6.602884 
6.601871 
6.600769 
6.602615 
6.601107 
6.600898 
6.602744 
6.601804 
6.605387 
6.604587 
6.602320 
6.600415 
6.604222 
6.602370 
6.599699 
6.592938 
6.587023 
6.591384 
6.595168 
6.596247 
6.606434 
6.608476 
6.605315 
6.605351 
6.607036 
6.601057 
6.599354 
6.600475 
6.595380 
6.596269 
6.597625 
6.593668 
6.594698 
6.594595 
6.591710 
6.594842 
6.597231 
6.594206 
6.596297 
6.596713 
6.598813 
6.601316 
6.599210 
6.598020 
6.601980 
6.601845 
6.596835 
6.598416 
6.597622 
6.594061 
6.597235 
6.594987 
6.593917 
6.600015 
6.597345 
6.596586 
6.597118 
6.591958 
6.589387 
6.592852 
6.591745 
6.591391 
6.592885 
6.591450 
6.590369 
6.592885 
6.587615 
6.582967 
6.579192 
6.578012 
6.579328 
6.580921 
6.573786 
6.579677 
6.578115 
6.575000 
6.581579 
6.578947 
6.572618 
6.575807 
6.572930 
6.558055 
6.541101 
6.544959 
6.566754 
6.580356 
6.591769 
6.599938 
6.603228 
6.601527 
6.597094 
6.601614 
6.600660 
6.600896 
6.603064 
6.601692 
6.599736 
6.599359 
6.588191 
6.586726 
6.590250 
6.590405 
6.592540 
6.597637 
6.599939 
6.601381 
6.605865 
6.603004 
6.602801 
6.605443 
6.601057 
6.600888 
6.605189 
6.603921 
6.604175 
6.609308 
6.605523 
6.609592 
6.610397 
6.606742 
6.607673 
6.608454 
6.605290 
6.607143 
6.607094 
6.606365 
6.602528 
6.603549 
6.603125 
6.604272 
6.602378 
6.602378 
6.602582 
6.606860 
6.604995 
6.605197 
6.605643 
6.608227 
6.606920 
6.602435 
6.604098 
6.604564 
6.603833 
6.603565 
6.605020 
6.604829 
6.605630 
6.609272 
6.608982 
6.608370 
6.604098 
6.604098 
6.605503 
6.609873 
6.606170 
6.604245 
6.601876 
6.602880 
6.601057 
6.601179 
6.602536 
6.606060 
6.605019 
6.605819 
6.606064 
6.608461 
6.605020 
6.603699 
6.597836 
6.602505 
6.599641 
6.603870 
6.604074 
6.605494 
6.604047 
6.600336 
6.605643 
6.602278 
6.600203 
6.603928 
6.603882 
6.605806 
6.605420 
6.603204 
6.606787 
6.603624 
6.604098 
6.605167 
6.603228 
6.602776 
6.605220 
6.608384 
6.607662 
6.603337 
6.606703 
6.611551 
6.606778 
6.606742 
6.608526 
6.609995 
6.608312 
6.605690 
6.608983 
6.610839 
6.606356 
6.605805 
6.608063 
6.610707 
6.606641 
6.607143 
6.608298 
6.607528 
6.604098 
6.603517 
6.606681 
6.606061 
6.606742 
6.608063 
6.608177 
6.606917 
6.601745 
6.601057 
6.602378 
6.607045 
6.604315 
6.601057 
6.600912 
6.602071 
6.597545 
6.598060 
6.600478 
6.600842 
6.600660 
6.596082 
6.597933 
6.597317 
6.590185 
6.594096 
6.594083 
6.593336 
6.592082 
6.593563 
6.596632 
6.588766 
6.589100 
6.592849 
6.587181 
6.588086 
6.594087 
6.589321 
6.589321 
6.588003 
6.591958 
6.594082 
6.588998 
6.582348 
6.589474 
6.589067 
6.589321 
6.591755 
6.593350 
6.593073 
6.592406 
6.595348 
6.595411 
6.592825 
6.591334 
6.590655 
6.593970 
6.594754 
6.591578 
6.589541 
6.589313 
6.590250 
6.589185 
6.588536 
6.590639 
6.592007 
6.591908 
6.588003 
6.588484 
6.589287 
6.589052 
6.590789 
6.588991 
6.590428 
6.589710 
6.590462 
6.593040 
6.590789 
6.590308 
6.590546 
6.591029 
6.592348 
6.594323 
6.594597 
6.593401 
6.592865 
6.594470 
6.595042 
6.593812 
6.592704 
6.590474 
6.589486 
6.589933 
6.590977 
6.593421 
6.592182 
6.591030 
6.592812 
6.597625 
6.596800 
6.593386 
6.592135 
6.592917 
6.593099 
6.593668 
6.597665 
6.593628 
6.594878 
6.592739 
6.596024 
6.596807 
6.598155 
6.597914 
6.597239 
6.598028 
6.598012 
6.595633 
6.596708 
6.594856 
6.591029 
6.591306 
6.590752 
6.596614 
6.595998 
6.594987 
6.597992 
6.596700 
6.592094 
6.591178 
6.592400 
6.595285 
6.594059 
6.596700 
6.598927 
6.599753 
6.598020 
6.598020 
6.596700 
6.598020 
6.599468 
6.600532 
6.599272 
6.597230 
6.598415 
6.598686 
6.599473 
6.599727 
6.599736 
6.598415 
6.599145 
6.598690 
6.598550 
6.595913 
6.597134 
6.597172 
6.596700 
6.599846 
6.599047 
6.597625 
6.596881 
6.598020 
6.598064 
6.599295 
6.602818 
6.601057 
6.602378 
6.599736 
6.600384 
6.605142 
6.602929 
6.602378 
6.602435 
6.605420 
6.605492 
6.605476 
6.602647 
6.604686 
6.601248 
6.598020 
6.600779 
6.601538 
6.597022 
6.602449 
6.602792 
6.602131 
6.605142 
6.603410 
6.602378 
6.602378 
6.602378 
6.604312 
6.605634 
6.605113 
6.606341 
6.606314 
6.604098 
6.606517 
6.605792 
6.603449 
6.598695 
6.596025 
6.596587 
6.598438 
6.599034 
6.594085 
6.595354 
6.595380 
6.595878 
6.598155 
6.594823 
6.591650 
6.591029 
6.592348 
6.593259 
6.592821 
6.593276 
6.592675 
6.591240 
6.589321 
6.590824 
6.589136 
6.587978 
6.585801 
6.587592 
6.584453 
6.585276 
6.585731 
6.588345 
6.584341 
6.586207 
6.587657 
6.587574 
6.586298 
6.585686 
6.588003 
6.592124 
6.593871 
6.593834 
6.593276 
6.592783 
6.594574 
6.595109 
6.598550 
6.597898 
6.594987 
6.596440 
6.595380 
6.596577 
6.595514 
6.590639 
6.589321 
6.590482 
6.591029 
6.593116 
6.591886 
6.594595 
6.592913 
6.591870 
6.591211 
6.593155 
6.595317 
6.593668 
6.592348 
6.591439 
6.596944 
6.599124 
6.597717 
6.595820 
6.595380 
6.594781 
6.591210 
6.595105 
6.594987 
6.595535 
6.595380 
6.598035 
6.602458 
6.601487 
6.600547 
6.600773 
6.601340 
6.604182 
6.604064 
6.602851 
6.604654 
6.604098 
6.604987 
6.602038 
6.604039 
6.601057 
6.601057 
6.601057 
6.599736 
6.605192 
6.601583 
6.600311 
6.598020 
6.595865 
6.597806 
6.599473 
6.597615 
6.596926 
6.596641 
6.599173 
6.596107 
6.601187 
6.597658 
6.595807 
6.596700 
6.597731 
6.598261 
6.600708 
6.597710 
6.597559 
6.599736 
6.602378 
6.602857 
6.598945 
6.598836 
6.600660 
6.598020 
6.598505 
6.603823 
6.599100 
6.598197 
6.601080 
6.608488 
6.607308 
6.609716 
6.610396 
6.608478 
6.606637 
6.603907 
6.603840 
6.602237 
6.599736 
6.599277 
6.598020 
6.602050 
6.605541 
6.603767 
6.604098 
6.606742 
6.606742 
6.605037 
6.604136 
6.602153 
6.601541 
6.602378 
6.602378 
6.605585 
6.608255 
6.605420 
6.608063 
6.606459 
6.607143 
6.610066 
6.611229 
6.608063 
6.608063 
6.606742 
6.606965 
6.610192 
6.609677 
6.609161 
6.608466 
6.607722 
6.608908 
6.609964 
6.611237 
6.611111 
6.611064 
6.610192 
6.611878 
6.611468 
6.612276 
6.611111 
6.612434 
6.612573 
6.614395 
6.614302 
6.608466 
6.609788 
6.608951 
6.605589 
6.607261 
6.607375 
6.610507 
6.615286 
6.617425 
6.618117 
6.613351 
6.616509 
6.617325 
6.615493 
6.615894 
6.617396 
6.619780 
6.618453 
6.619868 
6.614757 
6.616810 
6.614232 
6.615417 
6.615486 
6.618134 
6.616422 
6.614551 
6.619029 
6.619400 
6.618543 
6.618543 
6.620612 
6.620786 
6.620612 
6.621434 
6.617219 
6.617219 
6.617774 
6.620029 
6.621747 
6.621246 
6.620744 
6.617667 
6.621564 
6.624008 
6.624626 
6.624129 
6.625580 
6.625372 
6.621202 
6.613254 
6.603300 
6.596620 
6.592348 
6.587994 
6.587763 
6.593421 
6.591592 
6.591516 
6.591250 
6.592348 
6.594403 
6.596812 
6.593328 
6.591446 
6.589832 
6.592494 
6.595374 
6.596970 
6.593668 
6.596027 
6.599332 
6.602794 
6.605934 
6.606735 
6.604893 
6.605420 
6.608063 
6.610950 
6.616909 
6.614087 
6.616058 
6.615486 
6.614163 
6.613308 
6.613736 
6.597441 
6.594764 
6.598020 
6.602632 
6.604672 
6.603612 
6.603792 
6.608063 
6.609860 
6.610252 
6.610304 
6.612667 
6.614163 
6.612562 
6.611111 
6.611821 
6.609901 
6.608397 
6.610358 
6.611165 
6.611516 
6.612893 
6.614214 
6.613704 
6.611111 
6.613597 
6.614163 
6.618801 
6.619857 
6.618391 
6.618696 
6.622166 
6.621604 
6.625477 
6.623468 
6.622493 
6.624645 
6.624147 
6.624188 
6.626075 
6.624148 
6.622324 
6.621604 
6.618324 
6.619399 
6.619960 
6.619708 
6.621728 
6.617250 
6.619836 
6.620339 
6.620781 
6.620781 
6.619655 
6.621604 
6.618695 
6.619855 
6.621204 
6.619868 
6.619868 
6.615894 
6.618543 
6.617953 
6.613390 
6.615047 
6.614537 
6.617219 
6.617615 
6.621282 
6.618004 
6.613757 
6.610936 
6.608640 
6.611793 
6.612881 
6.609982 
6.610660 
6.612839 
6.612839 
6.615276 
6.614523 
6.615594 
6.617876 
6.616561 
6.617059 
6.617566 
6.617725 
6.617787 
6.618134 
6.616366 
6.618613 
6.621693 
6.617186 
6.618134 
6.618134 
6.612839 
6.619457 
6.622105 
6.622105 
6.623112 
6.618636 
6.620278 
6.623745 
6.626075 
6.623428 
6.623769 
6.624176 
6.621682 
6.626732 
6.624590 
6.625166 
6.621856 
6.623177 
6.622845 
6.625005 
6.623673 
6.623841 
6.623502 
6.623761 
6.621618 
6.624752 
6.624248 
6.621192 
6.617219 
6.619868 
6.620242 
6.623016 
6.618993 
6.623565 
6.620278 
6.621604 
6.623661 
6.623381 
6.618638 
6.624712 
6.621604 
6.618953 
6.621370 
6.620781 
6.622382 
6.621882 
6.621604 
6.624445 
6.624900 
6.624744 
6.624147 
6.623556 
6.625995 
6.625995 
6.627765 
6.628671 
6.628179 
6.627321 
6.625995 
6.627583 
6.627815 
6.628516 
6.631797 
6.630179 
6.630604 
6.629898 
6.630464 
6.631581 
6.630951 
6.631648 
6.630462 
6.632556 
6.632207 
6.628231 
6.626905 
6.625580 
6.625916 
6.628466 
6.628984 
6.629818 
6.628647 
6.628647 
6.627321 
6.628045 
6.629249 
6.628537 
6.627431 
6.628647 
6.628647 
6.630397 
6.630007 
6.625580 
6.628605 
6.628647 
6.627558 
6.629139 
6.627204 
6.628036 
6.627321 
6.624034 
6.627181 
6.629139 
6.630256 
6.628647 
6.627387 
6.627255 
6.628176 
6.625166 
6.626892 
6.629050 
6.624761 
6.628231 
6.624842 
6.624993 
6.622689 
6.621192 
6.621192 
6.623992 
6.624450 
6.622733 
6.626838 
6.622997 
6.625580 
6.624288 
6.629122 
6.630775 
6.629973 
6.630302 
6.626993 
6.627653 
6.628888 
6.628074 
6.629732 
6.629064 
6.629064 
6.631021 
6.632102 
6.630183 
6.626383 
6.622954 
6.625555 
6.628231 
6.630830 
6.629973 
6.629973 
6.629973 
6.631300 
6.631814 
6.629459 
6.631300 
6.629973 
6.631032 
6.631719 
6.633230 
6.631871 
6.628566 
6.629226 
6.631719 
6.629064 
6.632191 
6.632574 
6.631719 
6.634373 
6.631719 
6.630779 
6.630752 
6.632915 
6.631300 
6.629973 
6.628647 
6.628921 
6.630881 
6.631445 
6.632283 
6.630392 
6.631719 
6.631220 
6.632207 
6.631305 
6.630816 
6.627805 
6.628647 
6.629001 
6.629762 
6.626905 
6.624942 
6.627321 
6.628647 
6.630687 
6.633239 
6.631175 
6.629314 
6.629064 
6.630392 
6.632960 
6.628701 
6.628209 
6.628647 
6.628647 
6.628745 
6.630241 
6.628282 
6.631129 
6.628818 
6.629311 
6.628476 
6.629139 
6.628990 
6.628647 
6.630070 
6.629877 
6.630367 
6.630857 
6.626930 
6.629088 
6.627321 
6.625030 
6.629380 
6.630205 
6.626748 
6.625241 
6.627530 
6.625580 
6.623723 
6.617131 
6.617107 
6.618654 
6.619868 
6.621192 
6.622086 
6.625116 
6.622929 
6.622929 
6.622929 
6.623238 
6.622912 
6.620642 
6.622273 
6.622929 
6.620278 
6.624916 
6.625991 
6.620865 
6.619038 
6.622517 
6.622002 
6.626500 
6.629556 
6.629556 
6.628397 
6.629227 
6.630229 
6.634347 
6.634628 
6.636798 
6.634373 
6.634080 
6.633466 
6.636349 
6.634923 
6.631655 
6.633109 
6.633046 
6.633053 
6.635275 
6.634791 
6.634306 
6.634440 
6.633046 
6.631986 
6.634571 
6.633200 
6.635080 
6.631719 
6.633046 
6.632518 
6.634592 
6.634683 
6.634373 
6.633136 
6.632956 
6.632514 
6.633532 
6.629996 
6.630832 
6.630392 
6.629654 
6.628771 
6.632870 
6.633952 
6.631409 
6.631000 
6.630164 
6.630009 
6.631265 
6.628493 
6.627476 
6.626981 
6.629064 
6.631061 
6.629222 
6.629560 
6.630396 
6.629551 
6.630110 
6.629488 
6.628996 
6.629973 
6.631300 
6.630668 
6.629494 
6.633327 
6.629761 
6.630311 
6.630392 
6.630392 
6.631462 
6.631850 
6.632688 
6.633528 
6.633046 
6.629978 
6.634444 
6.633460 
6.632626 
6.632066 
6.633046 
6.634373 
6.636324 
6.636403 
6.634373 
6.633686 
6.632674 
6.631603 
6.635157 
6.633438 
6.631719 
6.633046 
6.633046 
6.631719 
6.634384 
6.629524 
6.629973 
6.628647 
6.629973 
6.631425 
6.630589 
6.633924 
6.634180 
6.634338 
6.635250 
6.635307 
6.637931 
6.637931 
6.638632 
6.636122 
6.636122 
6.637823 
6.638252 
6.635802 
6.635700 
6.634361 
6.634794 
6.637112 
6.640444 
6.635418 
6.634945 
6.637874 
6.637874 
6.640423 
6.640824 
6.640347 
6.639203 
6.639203 
6.639016 
6.640212 
6.637638 
6.639813 
6.636122 
6.634794 
6.636053 
6.635209 
6.638433 
6.637429 
6.634815 
6.631763 
6.628765 
6.627458 
6.626294 
6.625580 
6.624254 
6.623617 
6.624014 
6.623239 
6.619646 
6.619143 
6.618543 
6.620373 
6.620586 
6.621286 
6.619461 
6.618456 
6.613935 
6.621320 
6.623389 
6.625120 
6.624487 
6.626672 
6.625580 
6.625580 
6.625206 
6.624973 
6.622584 
6.624254 
6.625150 
6.626039 
6.629124 
6.630778 
6.632540 
6.634708 
6.635365 
6.633347 
6.634587 
6.632531 
6.633046 
6.635700 
6.634373 
6.632562 
6.633251 
6.632765 
6.629973 
6.636677 
6.634373 
6.632547 
6.633526 
6.628660 
6.631300 
6.629907 
6.631367 
6.630317 
6.630957 
6.629694 
6.626274 
6.627321 
6.627321 
6.631388 
6.631212 
6.628647 
6.631300 
6.625995 
6.623293 
6.627301 
6.619457 
6.622029 
6.621230 
6.618543 
6.609821 
6.612160 
6.619079 
6.620957 
6.618953 
6.620278 
6.623582 
6.624752 
6.624430 
6.625580 
6.626905 
6.626001 
6.628298 
6.628997 
6.628647 
6.632830 
6.632280 
6.628514 
6.630189 
6.630033 
6.631300 
6.628647 
6.631012 
6.631588 
6.632076 
6.633176 
6.631300 
6.628647 
6.628217 
6.627779 
6.630464 
6.630782 
6.627321 
6.629973 
6.628647 
6.628972 
6.633113 
6.630488 
6.628647 
6.628647 
6.628048 
6.628540 
6.630464 
6.628339 
6.627460 
6.630359 
6.629097 
6.633959 
6.634822 
6.629973 
6.628647 
6.628647 
6.628340 
6.627389 
6.630212 
6.629973 
6.629297 
6.631719 
6.629064 
6.632635 
6.629805 
6.627149 
6.624841 
6.624668 
6.625991 
6.626974 
6.628508 
6.631719 
6.632067 
6.634025 
6.635836 
6.637645 
6.634239 
6.634882 
6.633244 
6.633688 
6.634258 
6.636341 
6.635858 
6.633046 
6.630483 
6.633466 
6.635581 
6.635250 
6.633980 
6.633495 
6.635700 
6.632102 
6.635839 
6.637734 
6.637126 
6.638523 
6.636702 
6.633203 
6.633006 
6.630656 
6.631300 
6.629973 
6.629676 
6.629064 
6.632754 
6.632746 
6.630932 
6.631770 
6.631719 
6.633081 
6.634858 
6.633853 
6.633046 
6.633383 
6.634035 
6.634668 
6.635405 
6.636331 
6.632415 
6.634373 
6.631719 
6.633602 
6.637508 
6.634663 
6.635700 
6.635783 
6.637450 
6.639176 
6.639627 
6.636204 
6.638324 
6.639233 
6.642762 
6.640612 
6.644835 
6.641860 
6.644744 
6.644169 
6.644642 
6.645114 
6.647744 
6.646012 
6.643189 
6.641860 
6.643189 
6.643231 
6.645806 
6.643189 
6.645118 
6.645247 
6.645976 
6.645374 
6.642549 
6.642845 
6.641860 
6.642797 
6.640924 
6.642269 
6.645439 
6.645837 
6.643617 
6.642287 
6.643789 
6.647061 
6.647176 
6.644420 
6.646277 
6.642287 
6.642862 
6.643519 
6.645086 
6.644330 
6.643378 
6.642527 
6.644321 
6.643470 
6.640492 
6.639821 
6.639063 
6.637450 
6.637149 
6.636103 
6.632786 
6.628647 
6.628647 
6.630824 
6.634062 
6.616038 
6.606484 
6.611915 
6.615894 
6.621883 
6.633071 
6.639152 
6.641687 
6.642034 
6.642888 
6.646277 
6.645933 
6.644647 
6.642762 
6.642455 
6.641350 
6.640532 
6.645385 
6.645872 
6.646277 
6.646277 
6.645426 
6.643292 
6.646317 
6.643946 
6.641860 
6.643521 
6.642858 
6.640965 
6.645129 
6.643474 
6.641860 
6.641860 
6.641199 
6.640589 
6.643236 
6.642418 
6.639494 
6.640240 
6.643189 
6.639887 
6.646317 
6.643364 
6.641860 
6.643189 
6.643657 
6.641804 
6.641458 
6.637450 
6.636122 
6.634794 
6.638778 
6.637772 
6.637255 
6.638651 
6.638778 
6.634794 
6.637450 
6.638782 
6.638775 
6.640106 
6.638778 
6.641140 
6.640662 
6.644040 
6.643879 
6.641518 
6.641350 
6.638778 
6.638838 
6.643573 
6.642776 
6.640550 
6.638778 
6.635622 
6.636855 
6.640159 
6.637165 
6.637316 
6.637584 
6.640821 
6.639768 
6.641910 
6.641245 
6.640771 
6.641621 
6.643189 
6.642435 
6.639544 
6.637725 
6.637106 
6.636466 
6.639281 
6.639077 
6.641910 
6.640157 
6.641860 
6.639654 
6.640532 
6.642041 
6.643085 
6.643113 
6.641860 
6.641736 
6.640656 
6.643062 
6.642162 
6.639029 
6.641184 
6.639879 
6.639005 
6.640811 
6.643107 
6.640384 
6.638778 
6.638446 
6.637874 
6.640827 
6.640623 
6.638816 
6.640995 
6.636965 
6.635739 
6.640970 
6.639681 
6.635625 
6.638778 
6.637450 
6.637714 
6.641616 
6.640379 
6.640532 
6.637874 
6.638538 
6.639257 
6.641910 
6.639763 
6.640532 
6.640397 
6.639337 
6.640580 
6.640240 
6.638435 
6.633046 
6.633063 
6.633028 
6.630478 
6.632960 
6.633415 
6.636122 
6.636122 
6.637450 
6.631878 
6.628958 
6.628466 
6.629300 
6.627994 
6.627480 
6.631311 
6.633454 
6.631719 
6.632535 
6.632229 
6.633046 
6.637018 
6.634383 
6.631719 
6.633046 
6.635700 
6.635909 
6.637826 
6.638088 
6.636122 
6.636122 
6.634114 
6.635925 
6.637733 
6.636096 
6.632759 
6.632138 
6.632914 
6.635080 
6.637508 
6.635839 
6.636614 
6.633466 
6.634794 
6.635749 
6.639099 
6.637503 
6.637450 
6.636122 
6.636122 
6.637904 
6.637167 
6.635700 
6.634390 
6.636778 
6.637450 
6.640203 
6.640297 
6.639819 
6.636122 
6.636122 
6.636199 
6.641680 
6.641112 
6.641461 
6.640984 
6.641408 
6.641908 
6.643260 
6.643071 
6.643119 
6.643617 
6.644161 
6.644749 
6.644678 
6.645457 
6.644518 
6.643458 
6.644947 
6.646883 
6.648743 
6.645206 
6.645605 
6.643803 
6.644761 
6.647132 
6.643663 
6.643475 
6.641860 
6.640625 
6.644425 
6.644897 
6.648022 
6.645103 
6.645857 
6.645366 
6.646277 
6.647197 
6.648016 
6.646277 
6.643617 
6.643690 
6.644518 
6.644281 
6.643427 
6.644518 
6.643189 
6.641860 
6.642122 
6.644896 
6.646537 
6.644737 
6.644947 
6.646277 
6.644947 
6.647721 
6.647492 
6.647606 
6.646845 
6.645708 
6.646375 
6.649907 
6.648236 
6.648568 
6.646277 
6.646277 
6.643617 
6.644481 
6.642331 
6.640078 
6.642259 
6.643617 
6.645095 
6.648074 
6.646204 
6.648168 
6.649480 
6.649368 
6.649808 
6.651016 
6.651272 
6.649368 
6.648290 
6.651132 
6.650437 
6.646740 
6.642296 
6.641860 
6.640699 
6.643021 
6.642474 
6.646440 
6.647852 
6.647260 
6.646623 
6.646277 
6.646106 
6.641009 
6.642802 
6.637450 
6.630849 
6.640880 
6.647262 
6.649281 
6.647237 
6.646115 
6.648037 
6.647706 
6.650832 
6.652226 
6.651728 
6.648338 
6.646707 
6.650434 
6.650899 
6.652094 
6.650465 
6.649602 
6.649601 
6.650466 
6.651459 
6.651269 
