2.351861 
2.355658 
2.350837 
2.354160 
2.342625 
2.373509 
2.366669 
2.335959 
2.340292 
2.351344 
2.319009 
2.319946 
2.354486 
2.336648 
2.356498 
2.362971 
2.358188 
2.347328 
2.370993 
2.373876 
2.351182 
2.336839 
2.336866 
2.361765 
2.361662 
2.385289 
2.375486 
2.376692 
2.347761 
2.378088 
2.377003 
2.365326 
2.383738 
2.361427 
2.354826 
2.386042 
2.360991 
2.332803 
2.372339 
2.369368 
2.345948 
2.398432 
2.391776 
2.381732 
2.388594 
2.351520 
2.380675 
2.390563 
2.386019 
2.373125 
2.367837 
2.360160 
2.372773 
2.345632 
2.338531 
2.370433 
2.366497 
2.365480 
2.330418 
2.303309 
2.334109 
2.352850 
2.361213 
2.372219 
2.370208 
2.369884 
2.365240 
2.338928 
2.339963 
2.359938 
2.356674 
2.334105 
2.352242 
2.344801 
2.373827 
2.371380 
2.374679 
2.385579 
2.386070 
2.401917 
2.352265 
2.360422 
2.363323 
2.368945 
2.389507 
2.347158 
2.372782 
2.390634 
2.388587 
2.379499 
2.391626 
2.363621 
2.397321 
2.388330 
2.379778 
2.374679 
2.400674 
2.388696 
2.368259 
2.401598 
2.382299 
2.377330 
2.371856 
2.362242 
2.381928 
2.377143 
2.915968 
2.372246 
2.408690 
2.406909 
2.395198 
2.359618 
2.365350 
2.378070 
2.379145 
2.361902 
2.372819 
2.394988 
2.366104 
2.383535 
2.374853 
2.367217 
2.360483 
2.338492 
2.366330 
2.375979 
2.376515 
2.376695 
2.372296 
2.394624 
2.376107 
2.374963 
2.388281 
2.382383 
2.331151 
2.344579 
2.347055 
2.352376 
2.360205 
2.380850 
2.344016 
2.370639 
2.387915 
2.410674 
2.372671 
2.379060 
2.350011 
2.359986 
2.357502 
2.325811 
2.338213 
2.356179 
2.411872 
2.392826 
2.368076 
2.347040 
2.361391 
2.357184 
2.363927 
2.391897 
2.396904 
2.395813 
2.382282 
2.396157 
2.405854 
2.411379 
2.377241 
2.376976 
2.390350 
2.399017 
2.413711 
2.376362 
2.380655 
2.367439 
2.376991 
2.365389 
2.349516 
2.334992 
2.321461 
2.336635 
2.330612 
2.351922 
2.349815 
2.362083 
2.376807 
2.358493 
2.359654 
2.352623 
2.348877 
2.367019 
2.357345 
2.341053 
2.375661 
2.365865 
2.362395 
2.360364 
2.364340 
2.360824 
2.385749 
2.366322 
2.367746 
2.370230 
2.356780 
2.346463 
2.334941 
2.310286 
2.342557 
2.334222 
2.333262 
2.333336 
2.361231 
2.357066 
2.367534 
2.405926 
2.402292 
2.371030 
2.396878 
2.383928 
2.388491 
2.383350 
2.367801 
2.390511 
2.378680 
2.382013 
2.371083 
2.359391 
2.346240 
2.375319 
2.358108 
2.368674 
2.379877 
2.370389 
2.386469 
2.381405 
2.386374 
2.368508 
2.376319 
2.394359 
2.375360 
2.369221 
2.374304 
2.364922 
2.353495 
2.341663 
2.363876 
2.366538 
2.337441 
2.353989 
2.380325 
2.375502 
2.374603 
2.352588 
2.362710 
2.386878 
2.413277 
2.402815 
2.371665 
2.375111 
2.362572 
2.363219 
2.373386 
2.406393 
2.394620 
2.381598 
2.403090 
2.374513 
2.361948 
2.374196 
2.376317 
2.353765 
2.338510 
2.327834 
2.359710 
2.365487 
2.364190 
2.360675 
2.370193 
2.389740 
2.356438 
2.345756 
2.369435 
2.406479 
2.410031 
2.389763 
2.384161 
2.374833 
2.380774 
2.369503 
2.394531 
2.367726 
2.386099 
2.388202 
2.372387 
2.355521 
2.382512 
2.402507 
2.400096 
2.350215 
2.390331 
2.391052 
2.378248 
2.382355 
2.359338 
2.360429 
2.328963 
2.321394 
2.343129 
2.326748 
2.364023 
2.361604 
2.388461 
2.345398 
2.355062 
2.345341 
2.330396 
2.351841 
2.365737 
2.375588 
2.387718 
2.363071 
2.397489 
2.377861 
2.343220 
2.354384 
2.363686 
2.364162 
2.416567 
2.433927 
2.413447 
2.414513 
2.402001 
2.419902 
2.408810 
2.397002 
2.367891 
2.361405 
2.374518 
2.398413 
2.403879 
2.410407 
2.401470 
2.395143 
2.381893 
2.377730 
2.404447 
2.420929 
2.368926 
2.363223 
2.368894 
2.372378 
2.368851 
2.377824 
2.365968 
2.354053 
2.371834 
2.388358 
2.352076 
2.354903 
2.380312 
2.371983 
2.362268 
2.376684 
2.364823 
2.353647 
2.351739 
2.378553 
2.381119 
2.356407 
2.337058 
2.330428 
2.336295 
2.339322 
2.372764 
2.389225 
2.374969 
2.388526 
2.368727 
2.370684 
2.381740 
2.371347 
2.390413 
2.405945 
2.400998 
2.367455 
2.358675 
2.385819 
2.379225 
2.395992 
2.452513 
2.431646 
2.422475 
2.392258 
2.378443 
2.361722 
2.375118 
2.366316 
2.384538 
2.386316 
2.393066 
2.401017 
2.366764 
2.370878 
2.363878 
2.352134 
2.390828 
2.410043 
2.397553 
2.384388 
2.380779 
2.355041 
2.394348 
2.370326 
2.373221 
2.378813 
2.363327 
2.367726 
2.365514 
2.388584 
2.373894 
2.390825 
2.385680 
2.407480 
2.409769 
2.397704 
2.395196 
2.391732 
2.383099 
2.380150 
2.404224 
2.348845 
2.369862 
2.370608 
2.364728 
2.366902 
2.398223 
2.382389 
2.383886 
2.373930 
2.354994 
2.331185 
2.364926 
2.370653 
2.387316 
2.359916 
2.375572 
2.360059 
2.364667 
2.335639 
2.352876 
2.395428 
2.411836 
2.377706 
2.364688 
2.367623 
2.365267 
2.387760 
2.386858 
2.390050 
2.384796 
2.368500 
2.363005 
2.333017 
2.369283 
2.349414 
2.353270 
2.391709 
2.391891 
2.349973 
2.356003 
2.373863 
2.376125 
2.361792 
2.362842 
2.360765 
2.354937 
2.345610 
2.351649 
2.364336 
2.354224 
2.341510 
2.371930 
2.370764 
2.397740 
2.362033 
2.369532 
2.379418 
2.356798 
2.344634 
2.361237 
2.376321 
2.387844 
2.360125 
2.331068 
2.353206 
2.381588 
2.386709 
2.355550 
2.357827 
2.380510 
2.375960 
2.354881 
2.405908 
2.387146 
2.362532 
2.386900 
2.383242 
2.364026 
2.360179 
2.396196 
2.382706 
2.417501 
2.364668 
2.364648 
2.366907 
2.388678 
2.359249 
2.372106 
2.360670 
2.346304 
2.331767 
2.337959 
2.372429 
2.361252 
2.374854 
2.358550 
2.353815 
2.387241 
2.362091 
2.383756 
2.376596 
2.396915 
2.373708 
2.335145 
2.368962 
2.377360 
2.371320 
2.378373 
2.359506 
2.393880 
2.365367 
2.377419 
2.349270 
2.366553 
2.382069 
2.384467 
2.377694 
2.355127 
2.366088 
2.347297 
2.354556 
2.349649 
2.341647 
2.324735 
2.339427 
2.358677 
2.340471 
2.363791 
2.388303 
2.386042 
2.376431 
2.318676 
2.368452 
2.370945 
2.365085 
2.377793 
2.363560 
2.344790 
2.349960 
2.398306 
2.381037 
2.395661 
2.404758 
2.366269 
2.374659 
2.385141 
2.374646 
2.364357 
2.375261 
2.305322 
2.329806 
2.371106 
2.378309 
2.381597 
2.367933 
2.368538 
2.375805 
2.357970 
2.365775 
2.340019 
2.354390 
2.367447 
2.382123 
2.376561 
2.388497 
2.366382 
2.348076 
2.340824 
2.359687 
2.341896 
2.348886 
2.369733 
2.374096 
2.347172 
2.369074 
2.331906 
2.345357 
2.360406 
2.367722 
2.357820 
2.312485 
2.355679 
2.368242 
2.355221 
2.362945 
2.354792 
2.358985 
2.371077 
2.370060 
2.355280 
2.347255 
2.367380 
2.381548 
2.356876 
2.375477 
2.373801 
2.373435 
2.367278 
2.365986 
2.385462 
2.402127 
2.356180 
2.392488 
2.352940 
2.386586 
2.372064 
2.345819 
2.348131 
2.326488 
2.377960 
2.356371 
2.358361 
2.354948 
2.397258 
2.399041 
2.353829 
2.376741 
2.365556 
2.383620 
2.349808 
2.355242 
2.333705 
2.349513 
2.345911 
2.336219 
2.358507 
2.369438 
2.354924 
2.351966 
2.353832 
2.361638 
2.352050 
2.355873 
2.352161 
2.358699 
2.348555 
2.364665 
2.350732 
2.360484 
2.315854 
2.344876 
2.371497 
2.375994 
2.378205 
2.353631 
2.371826 
2.351987 
2.350478 
2.354989 
2.344838 
2.350665 
2.359040 
2.350387 
2.320316 
2.360037 
2.372841 
2.344970 
2.360411 
2.349563 
2.353914 
2.335586 
2.330745 
2.349097 
2.300042 
2.312910 
2.328599 
2.345243 
2.360419 
2.352508 
2.382061 
2.364137 
2.380620 
2.355349 
2.346721 
2.380883 
2.363427 
2.338807 
2.335414 
2.339119 
2.336449 
2.305183 
2.337740 
2.313277 
2.332279 
2.325205 
2.350603 
2.349326 
2.344505 
2.358261 
2.357692 
2.370398 
2.374900 
2.351257 
2.318658 
2.338742 
2.324112 
2.348911 
2.335839 
2.345012 
2.351198 
2.345610 
2.347940 
2.365074 
2.355413 
2.351828 
2.409164 
2.362648 
2.347369 
2.376776 
2.368560 
2.387628 
2.374280 
2.321221 
2.323420 
2.325299 
2.338396 
2.349597 
2.315031 
2.318976 
2.342969 
2.306257 
2.276954 
2.358563 
2.358324 
2.318644 
2.331957 
2.362748 
2.363119 
2.349457 
2.356146 
2.373586 
2.370370 
2.350431 
2.335328 
2.325548 
2.363362 
2.359642 
2.343636 
2.333979 
2.361703 
2.321660 
2.334402 
2.346296 
2.351667 
2.315091 
2.338778 
2.357671 
2.358792 
2.338637 
2.325908 
2.338730 
2.376130 
2.352494 
2.346245 
2.359782 
2.340674 
2.355941 
2.355680 
2.342369 
2.357851 
2.353672 
2.357195 
2.352901 
2.351528 
2.377085 
2.358784 
2.336667 
2.350910 
2.334915 
2.333365 
2.311519 
2.296269 
2.305869 
2.312308 
2.332113 
2.334296 
2.309743 
2.330897 
2.319093 
2.315863 
2.333476 
2.340449 
2.351200 
2.331955 
2.307693 
2.335122 
2.358306 
2.310574 
2.301249 
2.306255 
2.312673 
2.341885 
2.345907 
2.329562 
2.311056 
2.313318 
2.325240 
2.351628 
2.326078 
2.336668 
2.327156 
2.340701 
2.349152 
2.364439 
2.364948 
2.349879 
2.312109 
2.329962 
2.337701 
2.306622 
2.318899 
2.325609 
2.337097 
2.337371 
2.321484 
2.288524 
2.257852 
2.310778 
2.334702 
2.333012 
2.308517 
2.313530 
2.302401 
2.334906 
2.342515 
2.345977 
2.349096 
2.361941 
2.359057 
2.340707 
2.358477 
2.350715 
2.353490 
2.334701 
2.357877 
2.344385 
2.354798 
2.335498 
2.346694 
2.340455 
2.329855 
2.329600 
2.338734 
2.361877 
2.329755 
2.356087 
2.355393 
2.385814 
2.352327 
2.344221 
2.356413 
2.344098 
2.356476 
2.350710 
2.358832 
2.352037 
2.360308 
2.386338 
2.361165 
2.345559 
2.349843 
2.354423 
2.351408 
2.347101 
2.344704 
2.343280 
2.336687 
2.362807 
2.348810 
2.361292 
2.343581 
2.377885 
2.363974 
2.365002 
2.364955 
2.375760 
2.372085 
2.345236 
2.368849 
2.343795 
2.334697 
2.322979 
2.378717 
2.381881 
2.387248 
2.334655 
2.337576 
2.353669 
2.379629 
2.348370 
2.345693 
2.357714 
2.339483 
2.322552 
2.328898 
2.309906 
2.311688 
2.335262 
2.326174 
2.330729 
2.334341 
2.343329 
2.334045 
2.348248 
2.351853 
2.335593 
2.342480 
2.349542 
2.319849 
2.337015 
2.331128 
2.352824 
2.347295 
2.342594 
2.355306 
2.340074 
2.348520 
2.352913 
2.355530 
2.318419 
2.367336 
2.360838 
2.341193 
2.332874 
2.319060 
2.359620 
2.327390 
2.338354 
2.366947 
2.357768 
2.326580 
2.317221 
2.324816 
2.329042 
2.365543 
2.356074 
2.331560 
2.314395 
2.315571 
2.308512 
2.307492 
2.319391 
2.336574 
2.330385 
2.339308 
2.324094 
2.361246 
2.351043 
2.370251 
2.385706 
2.365720 
2.352188 
2.361856 
2.365269 
2.337661 
2.339950 
2.330088 
2.326733 
2.353252 
2.361136 
2.371877 
2.403968 
2.345384 
2.331662 
2.353128 
2.351799 
2.328285 
2.355612 
2.357097 
2.334961 
2.321574 
2.334618 
2.365192 
2.369288 
2.358317 
2.355826 
2.341418 
2.350655 
2.366277 
2.367097 
2.400998 
2.391473 
2.418727 
2.411841 
2.377053 
2.350255 
2.364749 
2.359536 
2.342028 
2.354305 
2.362255 
2.338399 
2.347626 
2.364401 
2.346076 
2.359797 
2.334679 
2.360991 
2.358812 
2.319253 
2.352509 
2.367672 
2.367451 
2.353973 
2.354039 
2.355872 
2.384167 
2.365166 
2.326168 
2.302617 
2.323468 
2.326032 
2.374170 
2.342124 
2.347321 
2.352333 
2.297706 
2.293979 
2.300765 
2.325254 
2.326935 
2.342110 
2.351993 
2.337909 
2.367735 
2.337039 
2.340184 
2.357029 
2.363756 
2.346789 
2.348195 
2.354807 
2.336112 
2.370970 
2.382465 
2.345486 
2.302846 
2.311335 
2.334728 
2.345572 
2.303059 
2.347181 
2.345940 
2.326100 
2.322495 
2.322392 
2.321043 
2.338286 
2.298193 
2.335626 
2.342158 
2.326793 
2.295614 
2.314721 
2.311180 
2.327255 
2.295314 
2.326889 
2.353783 
2.339627 
2.320542 
2.333317 
2.326770 
2.300982 
2.319744 
2.305103 
2.362010 
2.393058 
2.348738 
2.325268 
2.340677 
2.336937 
2.341444 
2.330864 
2.324590 
2.328785 
2.356885 
2.360692 
2.351333 
2.324497 
2.323708 
2.294875 
2.278943 
2.295012 
2.295495 
2.329624 
2.354081 
2.355879 
2.332191 
2.349860 
2.310587 
2.291204 
2.358820 
2.348976 
2.348033 
2.322859 
2.309207 
2.307235 
2.325230 
2.323517 
2.314481 
2.330308 
2.321441 
2.281836 
2.315638 
2.310969 
2.301827 
2.324295 
2.330903 
2.280883 
2.257959 
2.290806 
2.290055 
2.348480 
2.378549 
2.318410 
2.293676 
2.301686 
2.340699 
2.317528 
2.339916 
2.325210 
2.299736 
2.318002 
2.323922 
2.320371 
2.314748 
2.328645 
2.344031 
2.344233 
2.349991 
2.340127 
2.336947 
2.347587 
2.322740 
2.320818 
2.331896 
2.349114 
2.358412 
2.367043 
2.356585 
2.353041 
2.364895 
2.357974 
2.353200 
2.363759 
2.358460 
2.325839 
2.346855 
2.328607 
2.352900 
2.349539 
2.350052 
2.343940 
2.343812 
2.330670 
2.295183 
2.302256 
2.321700 
2.325343 
2.324712 
2.329532 
2.323558 
2.328730 
2.342004 
2.313384 
2.322341 
2.349075 
2.327910 
2.343069 
2.322118 
2.325756 
2.309944 
2.329231 
2.330517 
2.288806 
2.316884 
2.313411 
2.312645 
2.328122 
2.339101 
2.349989 
2.301000 
2.313123 
2.292836 
2.302138 
2.307365 
2.330136 
2.392067 
2.358057 
2.324771 
2.311466 
2.315900 
2.342342 
2.322898 
2.352121 
2.359074 
2.382811 
2.368173 
2.342470 
2.326481 
2.305914 
2.266298 
2.265221 
2.267839 
2.274628 
2.269162 
2.291247 
2.315115 
2.319474 
2.328418 
2.334588 
2.317245 
2.324829 
2.326669 
2.345708 
2.338162 
2.337198 
2.305222 
2.292732 
2.341158 
2.353256 
2.338818 
2.320929 
2.339906 
2.326474 
2.334911 
2.312237 
2.325628 
2.327167 
2.347333 
2.328791 
2.315053 
2.288416 
2.301454 
2.321683 
2.336913 
2.362574 
2.327273 
2.312972 
2.332797 
2.346617 
2.330307 
2.317308 
2.345752 
2.355141 
2.340852 
2.318225 
2.296503 
2.307994 
2.315358 
2.324031 
2.314544 
2.293881 
2.322379 
2.320060 
2.311046 
2.284125 
2.308097 
2.316125 
2.312690 
2.345154 
2.305766 
2.292604 
2.313261 
2.315345 
2.317091 
2.303058 
2.328403 
2.312877 
2.342288 
2.322649 
2.312932 
2.321132 
2.329113 
2.333160 
2.351377 
2.302995 
2.263737 
2.274476 
2.312797 
2.302321 
2.318760 
2.311612 
2.329572 
2.319193 
2.318451 
2.327800 
2.336906 
2.316322 
2.304172 
2.314879 
2.351194 
2.356872 
2.324393 
2.265238 
2.290365 
2.302554 
2.290779 
2.305023 
2.293257 
2.256783 
2.267189 
2.292707 
2.296204 
2.278197 
2.309498 
2.349601 
2.328298 
2.350717 
2.334959 
2.319874 
2.334973 
2.339301 
2.340442 
2.327687 
2.337472 
2.369584 
2.360755 
2.331819 
2.350057 
2.375889 
2.362835 
2.350406 
2.333767 
2.342601 
2.310131 
2.303519 
2.298476 
2.308553 
2.334731 
2.320188 
2.322110 
2.310383 
2.323546 
2.358277 
2.347926 
2.331916 
2.360919 
2.336171 
2.326214 
2.352715 
2.372641 
2.346181 
2.354374 
2.356382 
2.334938 
2.337235 
2.299734 
2.316457 
2.283181 
2.273021 
2.281919 
2.279650 
2.276711 
2.289094 
2.296040 
2.288412 
2.283418 
2.274376 
2.302023 
2.297710 
2.300670 
2.302819 
2.311221 
2.294334 
2.275739 
2.292840 
2.316237 
2.322231 
2.343942 
2.310895 
2.305100 
2.343665 
2.355978 
2.332900 
2.313509 
2.276760 
2.289905 
2.300257 
2.341772 
2.303348 
2.299371 
2.297074 
2.298947 
2.320102 
2.359907 
2.321235 
2.304373 
2.320530 
2.301326 
2.296901 
2.318998 
2.322389 
2.328783 
2.336583 
2.359088 
2.333221 
2.339836 
2.323746 
2.347669 
2.358539 
2.340042 
2.340386 
2.343478 
2.350176 
2.332124 
2.320361 
2.380737 
2.373069 
2.362015 
2.360666 
2.346275 
2.354017 
2.327091 
2.315387 
2.358545 
2.308335 
2.347124 
2.345141 
2.350427 
2.371436 
2.365028 
2.330953 
2.337722 
2.364755 
2.345553 
2.327225 
2.338823 
2.333881 
2.335018 
2.352932 
2.332992 
2.328508 
2.312853 
2.311595 
2.328305 
2.315705 
2.313395 
2.303663 
2.320688 
2.319116 
2.304535 
2.296632 
2.319422 
2.309423 
2.340137 
2.337307 
2.312713 
2.320477 
2.348552 
2.333688 
2.344179 
2.335811 
2.324006 
2.319884 
2.306339 
2.315636 
2.302236 
2.298359 
2.351033 
2.334586 
2.336058 
2.353349 
2.332078 
2.319151 
2.329335 
2.324277 
2.290602 
2.331842 
2.357472 
2.322800 
2.295952 
2.284920 
2.293064 
2.316805 
2.329230 
2.337457 
2.341701 
2.369645 
2.360745 
2.339108 
2.363574 
2.374383 
2.383921 
2.309886 
2.283213 
2.311083 
2.292969 
2.290951 
2.320507 
2.289306 
2.339239 
2.347593 
2.344909 
2.365176 
2.306138 
2.288459 
2.315232 
2.292037 
2.301818 
2.299583 
2.334375 
2.328453 
2.362618 
2.368748 
2.340268 
2.324698 
2.319913 
2.357812 
2.353444 
2.348721 
2.355726 
2.348097 
2.332246 
2.327003 
2.321161 
2.308794 
2.295483 
2.256014 
2.258092 
2.260585 
2.306782 
2.309017 
2.315921 
2.328775 
2.337340 
2.318441 
2.313794 
2.316530 
2.307494 
2.303403 
2.311819 
2.319715 
2.347461 
2.300931 
2.310729 
2.290586 
2.266998 
2.288732 
2.276762 
2.295615 
2.283213 
2.272653 
2.295119 
2.315868 
2.328402 
2.317394 
2.330694 
2.354172 
2.317658 
2.315360 
2.360196 
2.356934 
2.355190 
2.345853 
2.340385 
2.320158 
2.335604 
2.329599 
2.367083 
2.342865 
2.312736 
2.276392 
2.271189 
2.281979 
2.310004 
2.311711 
2.286913 
2.269153 
2.292496 
2.299776 
2.334769 
2.381979 
2.362937 
2.350986 
2.383594 
2.362841 
2.331830 
2.354731 
2.364301 
2.326520 
2.303946 
2.281138 
2.279089 
2.280076 
2.318710 
2.318897 
2.305811 
2.319046 
2.307824 
2.333883 
2.316795 
2.333633 
2.312669 
2.285378 
2.304587 
2.328911 
2.333580 
2.336346 
2.319300 
2.319748 
2.345328 
2.339313 
2.308437 
2.341771 
2.335070 
2.347199 
2.360920 
2.391017 
2.415239 
2.379694 
2.376491 
2.368519 
2.368883 
2.371235 
2.383341 
2.389472 
2.392302 
2.359303 
2.328730 
2.330717 
2.355861 
2.369911 
2.358237 
2.371097 
2.353668 
2.316933 
2.300067 
2.284127 
2.299431 
2.321568 
2.328140 
2.301653 
2.310822 
2.324097 
2.314964 
2.309537 
2.325299 
2.320295 
2.324427 
2.279547 
2.249281 
2.321617 
2.332590 
2.342942 
2.340953 
2.335910 
2.282214 
2.261333 
2.287411 
2.281304 
2.310086 
2.337767 
2.333933 
2.310888 
2.333827 
2.324176 
2.324958 
2.332691 
2.312091 
2.289621 
2.288004 
2.311208 
2.308351 
2.312802 
2.305686 
2.297019 
2.292011 
2.310826 
2.310953 
2.302610 
2.294382 
2.306048 
2.338893 
2.337135 
2.346062 
2.375073 
2.364016 
2.318670 
2.314884 
2.328420 
2.347248 
2.342376 
2.338784 
2.341011 
2.340814 
2.341509 
2.348565 
2.308753 
2.311457 
2.322751 
2.341978 
2.326574 
2.341457 
2.337647 
2.320130 
2.327710 
2.325650 
2.325288 
2.326568 
2.323568 
2.342016 
2.317282 
2.313913 
2.333603 
2.328229 
2.329565 
2.317741 
2.315093 
2.316956 
2.336729 
2.318112 
2.272735 
2.314481 
2.326238 
2.305315 
2.309020 
2.304294 
2.277801 
2.284027 
2.316080 
2.291544 
2.305647 
2.301136 
2.297566 
2.307290 
2.368657 
2.296661 
2.273461 
2.263171 
2.287175 
2.293883 
2.293471 
2.311050 
2.267539 
2.288878 
2.297868 
2.295408 
2.354477 
2.330912 
2.350111 
2.358189 
2.331237 
2.316517 
2.339479 
2.320371 
2.335443 
2.340642 
2.311357 
2.296815 
2.305677 
2.301599 
2.315107 
2.297287 
2.296201 
2.312191 
2.312479 
2.328644 
2.340302 
2.317919 
2.300454 
2.327410 
2.329006 
2.330794 
2.335349 
2.349501 
2.317968 
2.358216 
2.383349 
2.368068 
2.361572 
2.333872 
2.364711 
2.341930 
2.337776 
2.335666 
2.311208 
2.308935 
2.324513 
2.304069 
2.358959 
2.362846 
2.331315 
2.334763 
2.304334 
2.317259 
2.324550 
2.342424 
2.321135 
2.331391 
2.332180 
2.345937 
2.290166 
2.287398 
2.284029 
2.304372 
2.299224 
2.295389 
2.321411 
2.354452 
2.346053 
2.313894 
2.310225 
2.295835 
2.305416 
2.330741 
2.343628 
2.319796 
2.298075 
2.323411 
2.313346 
2.277811 
2.318208 
2.288965 
2.329086 
2.306208 
2.310543 
2.319132 
2.326810 
2.360954 
2.365897 
2.351968 
2.344708 
2.333209 
2.314274 
2.337855 
2.313265 
2.319710 
2.312054 
2.282966 
2.331967 
2.338431 
2.328567 
2.315376 
2.324675 
2.324850 
2.354779 
2.348439 
2.343756 
2.370729 
2.357440 
2.323519 
2.301789 
2.327926 
2.329541 
2.332358 
2.323756 
2.299283 
2.339303 
2.372708 
2.338492 
2.330348 
2.331670 
2.320535 
2.339609 
2.314177 
2.293714 
2.316394 
2.359266 
2.351461 
2.333861 
2.343168 
2.306297 
2.292583 
2.290053 
2.296982 
2.286428 
2.299105 
2.308429 
2.296419 
2.330444 
2.327678 
2.314615 
2.319162 
2.341540 
2.324292 
2.308078 
2.273433 
2.297138 
2.362951 
2.379847 
2.354464 
2.385594 
2.376987 
2.352903 
2.310992 
2.305495 
2.304676 
2.280597 
2.287428 
2.308539 
2.330788 
2.337949 
2.333440 
2.327768 
2.299578 
2.315252 
2.336297 
2.367321 
2.323726 
2.330799 
2.330065 
2.320902 
2.315102 
2.314869 
2.325560 
2.305623 
2.299135 
2.289421 
2.288964 
2.326485 
2.309957 
2.327750 
2.283818 
2.308566 
2.311934 
2.319781 
2.304329 
2.316603 
2.348074 
2.356232 
2.307400 
2.306613 
2.314192 
2.353948 
2.344153 
2.361035 
2.351016 
2.332543 
2.340351 
2.276858 
2.285083 
2.300837 
2.313191 
2.332790 
2.293229 
2.323710 
2.324631 
2.309500 
2.327689 
2.345313 
2.370235 
2.362698 
2.355161 
2.334353 
2.337494 
2.299167 
2.271161 
2.305241 
2.309603 
2.276976 
2.285358 
2.322203 
2.336877 
2.313524 
2.298659 
2.287185 
2.299277 
2.298837 
2.288609 
2.287021 
2.287518 
2.317013 
2.293823 
2.322016 
2.356519 
2.332117 
2.306634 
2.308138 
2.293615 
2.297327 
2.296669 
2.308549 
2.294622 
2.308869 
2.271616 
2.249177 
2.267658 
2.263430 
2.281268 
2.309876 
2.289483 
2.291148 
2.285495 
2.319828 
2.347620 
2.339068 
2.310487 
2.313175 
2.336920 
2.306832 
2.288060 
2.259808 
2.244545 
2.275812 
2.311780 
2.291303 
2.303780 
2.292548 
2.278837 
2.275514 
2.284004 
2.255403 
2.318533 
2.271596 
2.272141 
2.278186 
2.277920 
2.292414 
2.319996 
2.292813 
2.321622 
2.306128 
2.322096 
2.329030 
2.339954 
2.297234 
2.323669 
2.325421 
2.302960 
2.319824 
2.372376 
2.324448 
2.307026 
2.327823 
2.325657 
2.279383 
2.280865 
2.294355 
2.288681 
2.297312 
2.315968 
2.316708 
2.359892 
2.350355 
2.351546 
2.328440 
2.307398 
2.313023 
2.317278 
2.319147 
2.290951 
2.297002 
2.324896 
2.326795 
2.308064 
2.311890 
2.289015 
2.285697 
2.318279 
2.306464 
2.292134 
2.287703 
2.285516 
2.334443 
2.323946 
2.313146 
2.271306 
2.275110 
2.244911 
2.302351 
2.291862 
2.264818 
2.273045 
2.313403 
2.310248 
2.300910 
2.285451 
2.302026 
2.276953 
2.241544 
2.273271 
2.287928 
2.287553 
2.278746 
2.305293 
2.313149 
2.313548 
2.311025 
2.291785 
2.289428 
2.249058 
2.263266 
2.298044 
2.262671 
2.279765 
2.288599 
2.304378 
2.328387 
2.331946 
2.311392 
2.310462 
2.296617 
2.275657 
2.278348 
2.272441 
2.260595 
2.287355 
2.313776 
2.342422 
2.329654 
2.305567 
2.326161 
2.285033 
2.281192 
2.276454 
2.255829 
2.279920 
2.277314 
2.290304 
2.285753 
2.305671 
2.315430 
2.299977 
2.289480 
2.305210 
2.331098 
2.315950 
2.285545 
2.256917 
2.263472 
2.258207 
2.269115 
2.287443 
2.287487 
2.281894 
2.256752 
2.252817 
2.269095 
2.316027 
2.284984 
2.289996 
2.294520 
2.256156 
2.249246 
2.261997 
2.239938 
2.202406 
2.262351 
2.285425 
2.296235 
2.278241 
2.285691 
2.280154 
2.248806 
2.263933 
2.265574 
2.284290 
2.274681 
2.256119 
2.251460 
2.291206 
2.315732 
2.300137 
2.278243 
2.297215 
2.309469 
2.283524 
2.276104 
2.255062 
2.277904 
2.288818 
2.299873 
2.303901 
2.301180 
2.304533 
2.286879 
2.280480 
2.295694 
2.273539 
2.302760 
2.382755 
2.439079 
2.419594 
2.408608 
2.401066 
2.409774 
2.362508 
2.351193 
2.352528 
2.345289 
2.342972 
2.372527 
2.341250 
2.336262 
2.327252 
2.327644 
2.315312 
2.316889 
2.327961 
2.312324 
2.308995 
2.289605 
2.303289 
2.273573 
2.279594 
2.271665 
2.297689 
2.304578 
2.327714 
2.280174 
2.251201 
2.266117 
2.320378 
2.332691 
2.326461 
2.307677 
2.316911 
2.284005 
2.303755 
2.331069 
2.287709 
2.270163 
2.269276 
2.242045 
2.258761 
2.284947 
2.304119 
2.309674 
2.328276 
2.337018 
2.340073 
2.345876 
2.318768 
2.291747 
2.262473 
2.265616 
2.300371 
2.315616 
2.284250 
2.288650 
2.332090 
2.335580 
2.307364 
2.290834 
2.263964 
2.283914 
2.293464 
2.276576 
2.259895 
2.272818 
2.255996 
2.247298 
2.267419 
2.269539 
2.277168 
2.274652 
2.273832 
2.285544 
2.316076 
2.295853 
2.296127 
2.300596 
2.295423 
2.294883 
2.287738 
2.284081 
2.255753 
2.277792 
2.300064 
2.271702 
2.245456 
2.267819 
2.279485 
2.280878 
2.254488 
2.248326 
2.247890 
2.270360 
2.273308 
2.280095 
2.258164 
2.278792 
2.283335 
2.284802 
2.304326 
2.295868 
2.291835 
2.296770 
2.272905 
2.295753 
2.307250 
2.316248 
2.300215 
2.304417 
2.351509 
2.320802 
2.340258 
2.353014 
2.366241 
2.329478 
2.299541 
2.338558 
2.320017 
2.340069 
2.322402 
2.310002 
2.297819 
2.301063 
2.295338 
2.284071 
2.289436 
2.308102 
2.326395 
2.426221 
2.476198 
2.454641 
2.427354 
2.394266 
2.388266 
2.372879 
2.336737 
2.332980 
2.326032 
2.301206 
2.291773 
2.282527 
2.321478 
2.316415 
2.277254 
2.307822 
2.344824 
2.310473 
2.308495 
2.300916 
2.308438 
2.316120 
2.309105 
2.311468 
2.328720 
2.325044 
2.338029 
2.317324 
2.333555 
2.315165 
2.302040 
2.295936 
2.286676 
2.266056 
2.260221 
2.260497 
2.285528 
2.256149 
2.277429 
2.288247 
2.310785 
2.314580 
2.435382 
2.437193 
2.418578 
2.403010 
2.395359 
2.393595 
2.367397 
2.357879 
2.382719 
2.355090 
2.354291 
2.333421 
2.348124 
2.334136 
2.313297 
2.326996 
2.347869 
2.323031 
2.333436 
2.328717 
2.328642 
2.285426 
2.262518 
2.278811 
2.305872 
2.301910 
2.291372 
2.291880 
2.316412 
2.304436 
2.244560 
2.251566 
2.270245 
2.315764 
2.316824 
2.318223 
2.308817 
2.299334 
2.284732 
2.325236 
2.334849 
2.293930 
2.294049 
2.279339 
2.262098 
2.220736 
2.248101 
2.260147 
2.249391 
2.233353 
2.295713 
2.310481 
2.285350 
2.252602 
2.272797 
2.299266 
2.309264 
2.327772 
2.287519 
2.318217 
2.292528 
2.288561 
2.291141 
2.314696 
2.300813 
2.247153 
2.282723 
2.285219 
2.299655 
2.303366 
2.297887 
2.271163 
2.270060 
2.255902 
2.277966 
2.292602 
2.293404 
2.313081 
2.333676 
2.288967 
2.264495 
2.265774 
2.281272 
2.248086 
2.249718 
2.253201 
2.247713 
2.217587 
2.269286 
2.287937 
2.269367 
2.247379 
2.283697 
2.308920 
2.308608 
2.281738 
2.285008 
2.293905 
2.325337 
2.290638 
2.292747 
2.290063 
2.313538 
2.313920 
2.337508 
2.305747 
2.301549 
2.246357 
2.241877 
2.240000 
2.243291 
2.272723 
2.254295 
2.241147 
2.283647 
2.262161 
2.267071 
2.240591 
2.232210 
2.259105 
2.275558 
2.267888 
2.287516 
2.278950 
2.291144 
2.296758 
2.289796 
2.277295 
2.289913 
2.294713 
2.323417 
2.305964 
2.280424 
2.313505 
2.323728 
2.310974 
2.330437 
2.327931 
2.314781 
2.303773 
2.310746 
2.284880 
2.276225 
2.251839 
2.245644 
2.277242 
2.307839 
2.319683 
2.319494 
2.320323 
2.325487 
2.319359 
2.324821 
2.327000 
2.300076 
2.287970 
2.328067 
2.330080 
2.317515 
2.292873 
2.298749 
2.309423 
2.305608 
2.305330 
2.321695 
2.325725 
2.304242 
2.303173 
2.308434 
2.270154 
2.272004 
2.257656 
2.254286 
2.259790 
2.270903 
2.259608 
2.233891 
2.261783 
2.270306 
2.269559 
2.233521 
2.279684 
2.278388 
2.300649 
2.305430 
2.348646 
2.293695 
2.292759 
2.297875 
2.277653 
2.232152 
2.256784 
2.285135 
2.280354 
2.277399 
2.278095 
2.279106 
2.246890 
2.292644 
2.298222 
2.275316 
2.269576 
2.284478 
2.324050 
2.298659 
2.309002 
2.301769 
2.278407 
2.255786 
2.270878 
2.307936 
2.312434 
2.291193 
2.299043 
2.329968 
2.350170 
2.325971 
2.327414 
2.306117 
2.327539 
2.312213 
2.314055 
2.281528 
2.293240 
2.354420 
2.316789 
2.278542 
2.279765 
2.266313 
2.284453 
2.298209 
2.301953 
2.313125 
2.291681 
2.278890 
2.275218 
2.258792 
2.296318 
2.295576 
2.288919 
2.274381 
2.289505 
2.285736 
2.259595 
2.304193 
2.298415 
2.279901 
2.271011 
2.264550 
2.281668 
2.287972 
2.306174 
2.277515 
2.298856 
2.289897 
2.302411 
2.299675 
2.261879 
2.275279 
2.312715 
2.292830 
2.311609 
2.301662 
2.294105 
2.295577 
2.319143 
2.328912 
2.316603 
2.326636 
2.319953 
2.290228 
2.342195 
2.337633 
2.297055 
2.278610 
2.309552 
2.303241 
2.316446 
2.319081 
2.306550 
2.281767 
2.288327 
2.310775 
2.282848 
2.281087 
2.265442 
2.301916 
2.329030 
2.323147 
2.319692 
2.309587 
2.272979 
2.292170 
2.318645 
2.325560 
2.311840 
2.295940 
2.318780 
2.332710 
2.292559 
2.320235 
2.318222 
2.324963 
2.288405 
2.302999 
2.270614 
2.289725 
2.257401 
2.262434 
2.267884 
2.279834 
2.242985 
2.267273 
2.304713 
2.310191 
2.305623 
2.317205 
2.320651 
2.326610 
2.320508 
2.298129 
2.300437 
2.290726 
2.277666 
2.307446 
2.288686 
2.283542 
2.297662 
2.259800 
2.253704 
2.262704 
2.278899 
2.289831 
2.334931 
2.320691 
2.323969 
2.322054 
2.312343 
2.315972 
2.297817 
2.305087 
2.283254 
2.308049 
2.316242 
2.288000 
2.306131 
2.275730 
2.276448 
2.324577 
2.329385 
2.318314 
2.307877 
2.320058 
2.327703 
2.315345 
2.297827 
2.325409 
2.319272 
2.303319 
2.307722 
2.310624 
2.317405 
2.309239 
2.284097 
2.280787 
2.290017 
2.268428 
2.256007 
2.279842 
2.310403 
2.286289 
2.260059 
2.328992 
2.327036 
2.342552 
2.341010 
2.371461 
2.371809 
2.355121 
2.308503 
2.282618 
2.297669 
2.298131 
2.258427 
2.275795 
2.251540 
2.313237 
2.333967 
2.323510 
2.271549 
2.294918 
2.307331 
2.296251 
2.304859 
2.319439 
2.311889 
2.308790 
2.304365 
2.318907 
2.314775 
2.290297 
2.329899 
2.296751 
2.304053 
2.288084 
2.250830 
2.281432 
2.268100 
2.285270 
2.290431 
2.261879 
2.305974 
2.252355 
2.248382 
2.298740 
2.306339 
2.291080 
2.280486 
2.276273 
2.264716 
2.306459 
2.314550 
2.302082 
2.307184 
2.280703 
2.281117 
2.278405 
2.289196 
2.271847 
2.300323 
2.300554 
2.306555 
2.262758 
2.265110 
2.301715 
2.304591 
2.292647 
2.316980 
2.324855 
2.343965 
2.273925 
2.282747 
2.279422 
2.270368 
2.291744 
2.270707 
2.272799 
2.270362 
2.284670 
2.295106 
2.288512 
2.283258 
2.273878 
2.240658 
2.265851 
2.274664 
2.285354 
2.273442 
2.259110 
2.261648 
2.291125 
2.286668 
2.268840 
2.282210 
2.303693 
2.324934 
2.299624 
2.304687 
2.309315 
2.299279 
2.289699 
2.286579 
2.319111 
2.325535 
2.271401 
2.306704 
2.263535 
2.283440 
2.291052 
2.280400 
2.324857 
2.298211 
2.314108 
2.334372 
2.329496 
2.323617 
2.344701 
2.309428 
2.310645 
2.283444 
2.292028 
2.299472 
2.263565 
2.285477 
2.275278 
2.281405 
2.291797 
2.301624 
2.314948 
2.311784 
2.321627 
2.308224 
2.300769 
2.296722 
2.297043 
2.290572 
2.253582 
2.269337 
2.253788 
2.283840 
2.293573 
2.259597 
2.263705 
2.292884 
2.308065 
2.280840 
2.288515 
2.265529 
2.267098 
2.275531 
2.308190 
2.304145 
2.312239 
2.319653 
2.296393 
2.273975 
2.253297 
2.271042 
2.268236 
2.319804 
2.321239 
2.311624 
2.315950 
2.305908 
2.347955 
2.333856 
2.290333 
2.285939 
2.304518 
2.315124 
2.274743 
2.321941 
2.312673 
2.313080 
2.300375 
2.291844 
2.264640 
2.287359 
2.304568 
2.343639 
2.320311 
2.293597 
2.284868 
2.292361 
2.302411 
2.319624 
2.302007 
2.266030 
2.246040 
2.246120 
2.278115 
2.271929 
2.245616 
2.268917 
2.265813 
2.268174 
2.271207 
2.291680 
2.292163 
2.317020 
2.290887 
2.292489 
2.289482 
2.289004 
2.262964 
2.266284 
2.248240 
2.248765 
2.286560 
2.310486 
2.309330 
2.268950 
2.252469 
2.255866 
2.276044 
2.296108 
2.246533 
2.258010 
2.268403 
2.283254 
2.298518 
2.329223 
2.311322 
2.309541 
2.318448 
2.335732 
2.328034 
2.323458 
2.301895 
2.346740 
2.357745 
2.318609 
2.322776 
2.339195 
2.311512 
2.316717 
2.312556 
2.323130 
2.313438 
2.318457 
2.290433 
2.273770 
2.310341 
2.303706 
2.301097 
2.285593 
2.278300 
2.291610 
2.277143 
2.258581 
2.302380 
2.333210 
2.369125 
2.347327 
2.317511 
2.341982 
2.352986 
2.331445 
2.300461 
2.286502 
2.343066 
2.364322 
2.346195 
2.329856 
2.312710 
2.284103 
2.283334 
2.302291 
2.271294 
2.254828 
2.288295 
2.307814 
2.292089 
2.284380 
2.299497 
2.353181 
2.324210 
2.321993 
2.321393 
2.291414 
2.271730 
2.288606 
2.290239 
2.303117 
2.301773 
2.319812 
2.315594 
2.295940 
2.298671 
2.330242 
2.312139 
2.260788 
2.270604 
2.298176 
2.297001 
2.281277 
2.298680 
2.292362 
2.283442 
2.282954 
2.290994 
2.303048 
2.309253 
2.336716 
2.330762 
2.303845 
2.303968 
2.289256 
2.303586 
2.338529 
2.364115 
2.326770 
2.324941 
2.313106 
2.310736 
2.299718 
2.275697 
2.283835 
2.283564 
2.286183 
2.343510 
2.351110 
2.332336 
2.306247 
2.331851 
2.293927 
2.270538 
2.251092 
2.261017 
2.266374 
2.263874 
2.275614 
2.315054 
2.319566 
2.312761 
2.308763 
2.313050 
2.282256 
2.308209 
2.260219 
2.255304 
2.269894 
2.265855 
2.294636 
2.278492 
2.271902 
2.259084 
2.269824 
2.291821 
2.272046 
2.279471 
2.287128 
2.324871 
2.316115 
2.298325 
2.298132 
2.310746 
2.305950 
2.323058 
2.267537 
2.258566 
2.263029 
2.278840 
2.262426 
2.276139 
2.272743 
2.282439 
2.347640 
2.338831 
2.342664 
2.313939 
2.293105 
2.282434 
2.297880 
2.332498 
2.319760 
2.338304 
2.330330 
2.313114 
2.310898 
2.311937 
2.287806 
2.259600 
2.291504 
2.260472 
2.299753 
2.283686 
2.299319 
2.290263 
2.303719 
2.332633 
2.303032 
2.287749 
2.284597 
2.291086 
2.280572 
2.267676 
2.263610 
2.275119 
2.277959 
2.303712 
2.303098 
2.320629 
2.318240 
2.322566 
2.319640 
2.335531 
2.329152 
2.301954 
2.284468 
2.344429 
2.320172 
2.335047 
2.331546 
2.323242 
2.294747 
2.300566 
2.319543 
2.297521 
2.333757 
2.290864 
2.249614 
2.275920 
2.298389 
2.283067 
2.279960 
2.279663 
2.284236 
2.311079 
2.290421 
2.287133 
2.288686 
2.301111 
2.293469 
2.309724 
2.312354 
2.292195 
2.281690 
2.273103 
2.276445 
2.264218 
2.281864 
2.324798 
2.341335 
2.341007 
2.324741 
2.267659 
2.270945 
2.294923 
2.274278 
2.259140 
2.282878 
2.289196 
2.285454 
2.308624 
2.279856 
2.280216 
2.278092 
2.290999 
2.322368 
2.309090 
2.281802 
2.255416 
2.256448 
2.246427 
2.281073 
2.303303 
2.314951 
2.302339 
2.298798 
2.266470 
2.247185 
2.278887 
2.303027 
2.287976 
2.277342 
2.292548 
2.285436 
2.271230 
2.250972 
2.248085 
2.274856 
2.303246 
2.313774 
2.289236 
2.269300 
2.276556 
2.311164 
2.302955 
2.226678 
2.257044 
2.288910 
2.272808 
2.299490 
2.293174 
2.291101 
2.249050 
2.259558 
2.291420 
2.283781 
2.274913 
2.255286 
2.265558 
2.284089 
2.270935 
2.263370 
2.274862 
2.327555 
2.292768 
2.292183 
2.273851 
2.307064 
2.290923 
2.309902 
2.311562 
2.290539 
2.285254 
2.295694 
2.271082 
2.291911 
2.288102 
2.253551 
2.256500 
2.216193 
2.307423 
2.333904 
2.301162 
2.294674 
2.331070 
2.291843 
2.277145 
2.261988 
2.291204 
2.288388 
2.276535 
2.294910 
2.274738 
2.309163 
2.305165 
2.303013 
2.257349 
2.303508 
2.281675 
2.285626 
2.263530 
2.264865 
2.280986 
2.292469 
2.306713 
2.304279 
2.274796 
2.236540 
2.231828 
2.229691 
2.273835 
2.277545 
2.310482 
2.332501 
2.301858 
2.277967 
2.313517 
2.293739 
2.312342 
2.326882 
2.341814 
2.337148 
2.320648 
2.304918 
2.276155 
2.248139 
2.230131 
2.264084 
2.276175 
2.277307 
2.252242 
2.233706 
2.239138 
2.235373 
2.235238 
2.267162 
2.277172 
2.301064 
2.257191 
2.270172 
2.288468 
2.283555 
2.279982 
2.253241 
2.272986 
2.265495 
2.288911 
2.282686 
2.279825 
2.272575 
2.252720 
2.282729 
2.284677 
2.290111 
2.312374 
2.325974 
2.310293 
2.322371 
2.319892 
2.328882 
2.313744 
2.311971 
2.344908 
2.270712 
2.296067 
2.312582 
2.280123 
2.285238 
2.280405 
2.265961 
2.291276 
2.261278 
2.284029 
2.308974 
2.308885 
2.316423 
2.311003 
2.278047 
2.299301 
2.293682 
2.287029 
2.252229 
2.237636 
2.288409 
2.251619 
2.257773 
2.281965 
2.313439 
2.296935 
2.280238 
2.299738 
2.277313 
2.308602 
2.336609 
2.316921 
2.314874 
2.279533 
2.246403 
2.287843 
2.291882 
2.286609 
2.305735 
2.311264 
2.293420 
2.288974 
2.280725 
2.308090 
2.320990 
2.284320 
2.256078 
2.256541 
2.256570 
2.282514 
2.249968 
2.242913 
2.217939 
2.227349 
2.274574 
2.302779 
2.264692 
2.282579 
2.275728 
2.250300 
2.271448 
2.259879 
2.229245 
2.253286 
2.286209 
2.281611 
2.299064 
2.286527 
2.290577 
2.290267 
2.272443 
2.300117 
2.288014 
2.306799 
2.319445 
2.322041 
2.347558 
2.327668 
2.288042 
2.291547 
2.299441 
2.303666 
2.310112 
2.328320 
2.329568 
2.288353 
2.296084 
2.288040 
2.292049 
2.294104 
2.314294 
2.299839 
2.324551 
2.305397 
2.300565 
2.300969 
2.292346 
2.253007 
2.261593 
2.297721 
2.320198 
2.291161 
2.312835 
2.311988 
2.308713 
2.284041 
2.286215 
2.271699 
2.259485 
2.287008 
2.289268 
2.300029 
2.327436 
2.316275 
2.268917 
2.287811 
2.309322 
2.276601 
2.272340 
2.266568 
2.267576 
2.296519 
2.345613 
2.370943 
2.369999 
2.313523 
2.344087 
2.331001 
2.323095 
2.291047 
2.246452 
2.265987 
2.285089 
2.283397 
2.250014 
2.307386 
2.300387 
2.318467 
2.272219 
2.319787 
2.296845 
2.313199 
2.317236 
2.290972 
2.271169 
2.304333 
2.308122 
2.268210 
2.293114 
2.277610 
2.296145 
2.292918 
2.285495 
2.303457 
2.303892 
2.292245 
2.285463 
2.258882 
2.257614 
2.281261 
2.294373 
2.299968 
2.300216 
2.284974 
2.303326 
2.299603 
2.291642 
2.299440 
2.320286 
2.291370 
2.290380 
2.313839 
2.288517 
2.315216 
2.300508 
2.276584 
2.304629 
2.340658 
2.305752 
2.344478 
2.357454 
2.366567 
2.341428 
2.330316 
2.310234 
2.308212 
2.318482 
2.301877 
2.293574 
2.300591 
2.309316 
2.311351 
2.312923 
2.308926 
2.318198 
2.301988 
2.261846 
2.290427 
2.282691 
2.321085 
2.307831 
2.290833 
2.291860 
2.275246 
2.260819 
2.281023 
2.301973 
2.277807 
2.294379 
2.278909 
2.279848 
2.313061 
2.307935 
2.280256 
2.280951 
2.274130 
2.275512 
2.265777 
2.317609 
2.259440 
2.337834 
2.326174 
2.293491 
2.275313 
2.280145 
2.269343 
2.295773 
2.290237 
2.272708 
2.248177 
2.270326 
2.250017 
2.239020 
2.274373 
2.295732 
2.271489 
2.274732 
2.292576 
2.296241 
2.288067 
2.293335 
2.335211 
2.333203 
2.309342 
2.299546 
2.312011 
2.322088 
2.335005 
2.329579 
2.338362 
2.321289 
2.302085 
2.320835 
2.321544 
2.277834 
2.249710 
2.275168 
2.308632 
2.310948 
2.300822 
2.318539 
2.316832 
2.293491 
2.279211 
2.279464 
2.287450 
2.307555 
2.273184 
2.284808 
2.295835 
2.301961 
2.238452 
2.268116 
2.291800 
2.292705 
2.297957 
2.300849 
2.323119 
2.305152 
2.303992 
2.286079 
2.297568 
2.297343 
2.311483 
2.309448 
2.297527 
2.272628 
2.281237 
2.305648 
2.316379 
2.301550 
2.305210 
2.316545 
2.294644 
2.288417 
2.241099 
2.239989 
2.245993 
2.250533 
2.271321 
2.273760 
2.288778 
2.315931 
2.283696 
2.274494 
2.280175 
2.312598 
2.287880 
2.289339 
2.251440 
2.244164 
2.244274 
2.254737 
2.309147 
2.306416 
2.255563 
2.280336 
2.289991 
2.285729 
2.290931 
2.303728 
2.281576 
2.277366 
2.294852 
2.274296 
2.301112 
2.318885 
2.339584 
2.308792 
2.307446 
2.284469 
2.295941 
2.321873 
2.297761 
2.300010 
2.319805 
2.294171 
2.300607 
2.285495 
2.300614 
2.319201 
2.296205 
2.309979 
2.333439 
2.315309 
2.294037 
2.311978 
2.277775 
2.274187 
2.278551 
2.284756 
2.273185 
2.283429 
2.294111 
2.300269 
2.301117 
2.272631 
2.304668 
2.313188 
2.300661 
2.303549 
2.323611 
2.321061 
2.339470 
2.293015 
2.293866 
2.266711 
2.261763 
2.294314 
2.303880 
2.276247 
2.296242 
2.300905 
2.302295 
2.312763 
2.284193 
2.312428 
2.321460 
2.334159 
2.286093 
2.302907 
2.311815 
2.289140 
2.280927 
2.250064 
2.233121 
2.238850 
2.253206 
2.283474 
2.274900 
2.302144 
2.301906 
2.283416 
2.273962 
2.250449 
2.251917 
2.272850 
2.240379 
2.256186 
2.250985 
2.238196 
2.256420 
2.276383 
2.289002 
2.297687 
2.293763 
2.278331 
2.271479 
2.288945 
2.268043 
2.253446 
2.214098 
2.244782 
2.257761 
2.274223 
2.286246 
2.273939 
2.292487 
2.314878 
2.309043 
2.313414 
2.298054 
2.279328 
2.273859 
2.281266 
2.300156 
2.280986 
2.278084 
2.311976 
2.312650 
2.282515 
2.308559 
2.293254 
2.268825 
2.267922 
2.261013 
2.272083 
2.278243 
2.285282 
2.270493 
2.271836 
2.285304 
2.282940 
2.271554 
2.290529 
2.305320 
2.312518 
2.273783 
2.292864 
2.297920 
2.269285 
2.280997 
2.278555 
2.239475 
2.243215 
2.242220 
2.259232 
2.272724 
2.284268 
2.297351 
2.337368 
2.290432 
2.303532 
2.305171 
2.259288 
2.236173 
2.280180 
2.271442 
2.255429 
2.272154 
2.270441 
2.259729 
2.262199 
2.297708 
2.300274 
2.223770 
2.309478 
2.295606 
2.269662 
2.270452 
2.287204 
2.280983 
2.273142 
2.278302 
2.276184 
2.296013 
2.292283 
2.293116 
2.289670 
2.281470 
2.314477 
2.285474 
2.265602 
2.293351 
2.281574 
2.263890 
2.315185 
2.315727 
2.275236 
2.279970 
2.282664 
2.280617 
2.278707 
2.293202 
2.306777 
2.330593 
2.308197 
2.315064 
2.285088 
2.295982 
2.260483 
2.309040 
2.288352 
2.288279 
2.266027 
2.237409 
2.260717 
2.261358 
2.288854 
2.316720 
2.277945 
2.291282 
2.318013 
2.313795 
2.289463 
2.287377 
2.300283 
2.292693 
2.295644 
2.288506 
2.297214 
2.259467 
2.301334 
2.329852 
2.315469 
2.292032 
2.294643 
2.291908 
2.301088 
2.297414 
2.283114 
2.310036 
2.297175 
2.279319 
2.309976 
2.300031 
2.306274 
2.289891 
2.289805 
2.306365 
2.383119 
2.394656 
2.386335 
2.376196 
2.372808 
2.369405 
2.356870 
2.346480 
2.361879 
2.371398 
2.380125 
2.369036 
2.339168 
2.305454 
2.324402 
2.317051 
2.292441 
2.335178 
2.315501 
2.312688 
2.301426 
2.303313 
2.331892 
2.311309 
2.321909 
2.309259 
2.313180 
2.313597 
2.305639 
2.317161 
2.298408 
2.261574 
2.285546 
2.304269 
2.298324 
2.306080 
2.287832 
2.321806 
2.282649 
2.350303 
2.351218 
2.317075 
2.317057 
2.332927 
2.304489 
2.275115 
2.303123 
2.312113 
2.294826 
2.296173 
2.333316 
2.283066 
2.285451 
2.306192 
2.289653 
2.310425 
2.305588 
2.325945 
2.315498 
2.292707 
2.303107 
2.306484 
2.298067 
2.307357 
2.342914 
2.315790 
2.317417 
2.303505 
2.313058 
2.302434 
2.269116 
2.298724 
2.311071 
2.307637 
2.287554 
2.260259 
2.298276 
2.311179 
2.330506 
2.310661 
2.308353 
2.299067 
2.304922 
2.265286 
2.246184 
2.280065 
2.270700 
2.300550 
2.338841 
2.314248 
2.264066 
2.258244 
2.291261 
2.290486 
2.292186 
2.318556 
2.300540 
2.261134 
2.308089 
2.262487 
2.204338 
2.244493 
2.262396 
2.273248 
2.297083 
2.278226 
2.318323 
2.303609 
2.295204 
2.281149 
2.301991 
2.306874 
2.298011 
2.317334 
2.319094 
2.296067 
2.280665 
2.273086 
2.314664 
2.298160 
2.287389 
2.301284 
2.276807 
2.242528 
2.248729 
2.294228 
2.304282 
2.285150 
2.284789 
2.317397 
2.325136 
2.302062 
2.282602 
2.270024 
2.267615 
2.280500 
2.280964 
2.286163 
2.306069 
2.294849 
2.268360 
2.242906 
2.284948 
2.270067 
2.249143 
2.276148 
2.264141 
2.302223 
2.259848 
2.256057 
2.275831 
2.298285 
2.304090 
2.315668 
2.306501 
2.334261 
2.290302 
2.280952 
2.303193 
2.261398 
2.269815 
2.311127 
2.299622 
2.325128 
2.301179 
2.304746 
2.349464 
2.312614 
2.322279 
2.338555 
2.310584 
2.341002 
2.324969 
2.290260 
2.331566 
2.334420 
2.305375 
2.295618 
2.283746 
2.305077 
2.297402 
2.283815 
2.318760 
2.328039 
2.326758 
2.334389 
2.312622 
2.297065 
2.307439 
2.294353 
2.323271 
2.336493 
2.314623 
2.299652 
2.299660 
2.319128 
2.320632 
2.309259 
2.314213 
2.273262 
2.274884 
2.307641 
2.287766 
2.282211 
2.282139 
2.352271 
2.375661 
2.368368 
2.389368 
2.368148 
2.411138 
2.346518 
2.352451 
2.323904 
2.324153 
2.345834 
2.331042 
2.294042 
2.317583 
2.309548 
2.284813 
2.319703 
2.310632 
2.292665 
2.313441 
2.314093 
2.330208 
2.290332 
2.264228 
2.253663 
2.270649 
2.316303 
2.282228 
2.298664 
2.295157 
2.302662 
2.295008 
2.295451 
2.272978 
2.233737 
2.252391 
2.290030 
2.301555 
2.283950 
2.261977 
2.267828 
2.280197 
2.265368 
2.310859 
2.318955 
2.307127 
2.284221 
2.274399 
2.308058 
2.324270 
2.322970 
2.287641 
2.294319 
2.321919 
2.318086 
2.306097 
2.279961 
2.291076 
2.298421 
2.306311 
2.306533 
2.289623 
2.292915 
2.288049 
2.317511 
2.273877 
2.272737 
2.282761 
2.311042 
2.298213 
2.288911 
2.307758 
2.300858 
2.335539 
2.320570 
2.298794 
2.270942 
2.266008 
2.282520 
2.239686 
2.289076 
2.277287 
2.270813 
2.272996 
2.292977 
2.313620 
2.302168 
2.294533 
2.252054 
2.229961 
2.269300 
2.288024 
2.287151 
2.293523 
2.308481 
2.313053 
2.325626 
2.298832 
2.295882 
2.306108 
2.324138 
2.310392 
2.288484 
2.247130 
2.237514 
2.292941 
2.293070 
2.304258 
2.328977 
2.348860 
2.337697 
2.324020 
2.318315 
2.289914 
2.275462 
2.277205 
2.297582 
2.296664 
2.284611 
2.324901 
2.345060 
2.320883 
2.318871 
2.337609 
2.329103 
2.298036 
2.350662 
2.333044 
2.333073 
2.315602 
2.292257 
2.295162 
2.326429 
2.304668 
2.245394 
2.235206 
2.265117 
2.299706 
2.289629 
2.318432 
2.343679 
2.329674 
2.299012 
2.307249 
2.289525 
2.259750 
2.253277 
2.263314 
2.256016 
2.267446 
2.265261 
2.290597 
2.265077 
2.269256 
2.282483 
2.282545 
2.261805 
2.279312 
2.283044 
2.275093 
2.301601 
2.287108 
2.283621 
2.289678 
2.295724 
2.317032 
2.328888 
2.323802 
2.265482 
2.321925 
2.344763 
2.347143 
2.320767 
2.312340 
2.294126 
2.301180 
2.311168 
2.323040 
2.299995 
2.305338 
2.301108 
2.278441 
2.275402 
2.256904 
2.247737 
2.223035 
2.227201 
2.258191 
2.290802 
2.287506 
2.266628 
2.276611 
2.292264 
2.297414 
2.287927 
2.279924 
2.251449 
2.287614 
2.308107 
2.300668 
2.322569 
2.321317 
2.310518 
2.303682 
2.293706 
2.293464 
2.277243 
2.320687 
2.351935 
2.322002 
2.362121 
2.357917 
2.323251 
2.301668 
2.308450 
2.314601 
2.302013 
2.249516 
2.262092 
2.286894 
2.283347 
2.249688 
2.271132 
2.254772 
2.293181 
2.349258 
2.351046 
2.364010 
2.348116 
2.338912 
2.317617 
2.324973 
2.307421 
2.267159 
2.276366 
2.282387 
2.261507 
2.284253 
2.253965 
2.276657 
2.296030 
2.301668 
2.309322 
2.275637 
2.292001 
2.279901 
2.234850 
2.269352 
2.258055 
2.264915 
2.330296 
2.316841 
2.297266 
2.281817 
2.275258 
2.287075 
2.278645 
2.278468 
2.272893 
2.276670 
2.285343 
2.284830 
2.313400 
2.300144 
2.289341 
2.290182 
2.273523 
2.265243 
2.238913 
2.228597 
2.270913 
2.261160 
2.290459 
2.271742 
2.253556 
2.237537 
2.268422 
2.253996 
2.280382 
2.266468 
2.246991 
2.278081 
2.275725 
2.273669 
2.284451 
2.300758 
2.284306 
2.292556 
2.307255 
2.253807 
2.258629 
2.291732 
2.290270 
2.247999 
2.273076 
2.271702 
2.244115 
2.246161 
2.279676 
2.283836 
2.266291 
2.299114 
2.307985 
2.287360 
2.275585 
2.286724 
2.304717 
2.261778 
2.299051 
2.342929 
2.341166 
2.329079 
2.313787 
2.328681 
2.307865 
2.308354 
2.316120 
2.308724 
2.290726 
2.273864 
2.254645 
2.229321 
2.231152 
2.255982 
2.229342 
2.239310 
2.288590 
2.286670 
2.267843 
2.296382 
2.292732 
2.275283 
2.286625 
2.272672 
2.268620 
2.258640 
2.252574 
2.274711 
2.292672 
2.244615 
2.248189 
2.265872 
2.246854 
2.229293 
2.236194 
2.225888 
2.243122 
2.261691 
2.273244 
2.250636 
2.247343 
2.241486 
2.236659 
2.261809 
2.283477 
2.265062 
2.288012 
2.274772 
2.319091 
2.330040 
2.297555 
2.308078 
2.272341 
2.277296 
2.228756 
2.285796 
2.279658 
2.250968 
2.272473 
2.277233 
2.292359 
2.306827 
2.252624 
2.290750 
2.275669 
2.289325 
2.282539 
2.295631 
2.321595 
2.271588 
2.278175 
2.322947 
2.345531 
2.338163 
2.345725 
2.286425 
2.322655 
2.337209 
2.328413 
2.311710 
2.333617 
2.360196 
2.355218 
2.376004 
2.355671 
2.322462 
2.335515 
2.305607 
2.306928 
2.310651 
2.327392 
2.326520 
2.339752 
2.331699 
2.319841 
2.301753 
2.316348 
2.352958 
2.339178 
2.365728 
2.337686 
2.329380 
2.315589 
2.322998 
2.291306 
2.338690 
2.350900 
2.334597 
2.330515 
2.312271 
2.298682 
2.311588 
2.308044 
2.308669 
2.324230 
2.346505 
2.333726 
2.317682 
2.352504 
2.295629 
2.325108 
2.319199 
2.306442 
2.326606 
2.351696 
2.323996 
2.332734 
2.372453 
2.371596 
2.365702 
2.362693 
2.369596 
2.362488 
2.366328 
2.381935 
2.404599 
2.435453 
2.393224 
2.390813 
2.393045 
2.411893 
2.414772 
2.426211 
2.426411 
2.422313 
2.405169 
2.404565 
2.400230 
2.413615 
2.454130 
2.413820 
2.416708 
2.436314 
2.411032 
2.430993 
2.427331 
2.431831 
2.421574 
2.430683 
2.453034 
2.445069 
2.429577 
2.447612 
2.453595 
2.413149 
2.405069 
2.409761 
2.423562 
2.409122 
2.411917 
2.426699 
2.435551 
2.430596 
2.444966 
2.422939 
2.419093 
2.423909 
2.416877 
2.375462 
2.395243 
2.403861 
2.400463 
2.393184 
2.366505 
2.371442 
2.368998 
2.352414 
2.343213 
2.379458 
2.391637 
2.365820 
2.365348 
2.383634 
2.378354 
2.332237 
2.343232 
2.362049 
2.382230 
2.385148 
2.397297 
2.387369 
2.364753 
2.356861 
2.351491 
2.359755 
2.358027 
2.383720 
2.363111 
2.346159 
2.372251 
2.384981 
2.350782 
2.362857 
2.362890 
2.371034 
2.394861 
2.397056 
2.363026 
2.396324 
2.409203 
2.384529 
2.378259 
2.371342 
2.370382 
2.371481 
2.336205 
2.359250 
2.367412 
2.365512 
2.354700 
2.357189 
2.353445 
2.359793 
2.375507 
2.349739 
2.362474 
2.389461 
2.361692 
2.360426 
2.365455 
2.335108 
2.317860 
2.337270 
2.325158 
2.352011 
2.371268 
2.343290 
2.323689 
2.327747 
2.344912 
2.311496 
2.326915 
2.325218 
2.307848 
2.304576 
2.306635 
2.295390 
2.336652 
2.362699 
2.344967 
2.325448 
2.337200 
2.341524 
2.325212 
2.347674 
2.355093 
2.366516 
2.323197 
2.356467 
2.356178 
2.317285 
2.313937 
2.313419 
2.318182 
2.298653 
2.285176 
2.283829 
2.273722 
2.281010 
2.308367 
2.277379 
2.313227 
2.292957 
2.272672 
2.283413 
2.273717 
2.243906 
2.279461 
2.338027 
2.275870 
2.265509 
2.283913 
2.280051 
2.288114 
2.281632 
2.319753 
2.329983 
2.302933 
2.263898 
2.263006 
2.271099 
2.244780 
2.229301 
2.290643 
2.309152 
2.322660 
2.286875 
2.255210 
2.290582 
2.238897 
2.262320 
2.254419 
2.265881 
2.272108 
2.264277 
2.281881 
2.271236 
2.272755 
2.277904 
2.273701 
2.265744 
2.258367 
2.258847 
2.284388 
2.294042 
2.291335 
2.300625 
2.310815 
2.277523 
2.242478 
2.250136 
2.258383 
2.286152 
2.292100 
2.282304 
2.255700 
2.279885 
2.259093 
2.177133 
2.224913 
2.238023 
2.219430 
2.250279 
2.251877 
2.266407 
2.250815 
2.255083 
2.273808 
2.300280 
2.290221 
2.264196 
2.254027 
2.269467 
2.301966 
2.235091 
2.212670 
2.227077 
2.256144 
2.277309 
2.282092 
2.243361 
2.264432 
2.318681 
2.282502 
2.269960 
2.272788 
2.286209 
2.256097 
2.257075 
2.214966 
2.226528 
2.242653 
2.248259 
2.254720 
2.296043 
2.285771 
2.284128 
2.265789 
2.266467 
2.267724 
2.265244 
2.241833 
2.275537 
2.247664 
2.258299 
2.261102 
2.231642 
2.265248 
2.254978 
2.237686 
2.232861 
2.234648 
2.290248 
2.284594 
2.268268 
2.252075 
2.253268 
2.272766 
2.260224 
2.296370 
2.268215 
2.247492 
2.228880 
2.207567 
2.246040 
2.264807 
2.275774 
2.228559 
2.261365 
2.266250 
2.243839 
2.218876 
2.240396 
2.242784 
2.252093 
2.243906 
2.242231 
2.211236 
2.254561 
2.269863 
2.250607 
2.265768 
2.254033 
2.223695 
2.225576 
2.305023 
2.328620 
2.335493 
2.326834 
2.298119 
2.299022 
2.280486 
2.265805 
2.264941 
2.253050 
2.233886 
2.216769 
2.300993 
2.291232 
2.253474 
2.264003 
2.255063 
2.277456 
2.279247 
2.280870 
2.201526 
2.230204 
2.245244 
2.251525 
2.237863 
2.255149 
2.252404 
2.273235 
2.261249 
2.250363 
2.223596 
2.239353 
2.252487 
2.261592 
2.271302 
2.258315 
2.216296 
2.218021 
2.276998 
2.284087 
2.253343 
2.223532 
2.226524 
2.232811 
2.228299 
2.198866 
2.263654 
2.256120 
2.252576 
2.240576 
2.240862 
2.226762 
2.217424 
2.245079 
2.220970 
2.249478 
2.235445 
2.239209 
2.245067 
2.282717 
2.290946 
2.301432 
2.291596 
2.296564 
2.281961 
2.265310 
2.308274 
2.317377 
2.281089 
2.265374 
2.250705 
2.272611 
2.312822 
2.301938 
2.283014 
2.262174 
2.266774 
2.273584 
2.226646 
2.218119 
2.230180 
2.250630 
2.237659 
2.229599 
2.226897 
2.251667 
2.236648 
2.236828 
2.255578 
2.256941 
2.264995 
2.220934 
2.173859 
2.150357 
2.196459 
2.187198 
2.176220 
2.195677 
2.209299 
2.186239 
2.224723 
2.190050 
2.220398 
2.241016 
2.240879 
2.244897 
2.232600 
2.226795 
2.212163 
2.208290 
2.212032 
2.220742 
2.202872 
2.208209 
2.216615 
2.199962 
2.165870 
2.169871 
2.184991 
2.195059 
2.211888 
2.216361 
2.219971 
2.205733 
2.209828 
2.219096 
2.246178 
2.217870 
2.174136 
2.166522 
2.183434 
2.184586 
2.170532 
2.230540 
2.229130 
2.236761 
2.240206 
2.243377 
2.186092 
2.207286 
2.181307 
2.261348 
2.282701 
2.294601 
2.312585 
2.314841 
2.305180 
2.275416 
2.247728 
2.241512 
2.256034 
2.298945 
2.275773 
2.268076 
2.247810 
2.245126 
2.226794 
2.225856 
2.220640 
2.242523 
2.239313 
2.242970 
2.239885 
2.269351 
2.239182 
2.257419 
2.272214 
2.255699 
2.280027 
2.281962 
2.295595 
2.263767 
2.232891 
2.221743 
2.242360 
2.271108 
2.280648 
2.271109 
2.248427 
2.239029 
2.250971 
2.231747 
2.230583 
2.248228 
2.257222 
2.258091 
2.254089 
2.269647 
2.226124 
2.245298 
2.224826 
2.199709 
2.190543 
2.232858 
2.216486 
2.230191 
2.186514 
2.199987 
2.178472 
2.177957 
2.186572 
2.189869 
2.174767 
2.209568 
2.190309 
2.228783 
2.238611 
2.209109 
2.258221 
2.224711 
2.228016 
2.235195 
2.233101 
2.216717 
2.196980 
2.214947 
2.223748 
2.206689 
2.228931 
2.255530 
2.273715 
2.266090 
2.213291 
2.233077 
2.242317 
2.238372 
2.262640 
2.272691 
2.257360 
2.228274 
2.229640 
2.246680 
2.194995 
2.139777 
2.206049 
2.216030 
2.232294 
2.226303 
2.253945 
2.251660 
2.243759 
2.254228 
2.233373 
2.240570 
2.246726 
2.269996 
2.232235 
2.240653 
2.262049 
2.276539 
2.265688 
2.255587 
2.275024 
2.298374 
2.277549 
2.296189 
2.246085 
2.249229 
2.234278 
2.247285 
2.247597 
2.245001 
2.249596 
2.245016 
2.243791 
2.244371 
2.287611 
2.272328 
2.253304 
2.222476 
2.237285 
2.238855 
2.232464 
2.229149 
2.224147 
2.239507 
2.200442 
2.211534 
2.195383 
2.175918 
2.190708 
2.205679 
2.229300 
2.204187 
2.187707 
2.221082 
2.227735 
2.217726 
2.234757 
2.229215 
2.239126 
2.195094 
2.209674 
2.201530 
2.195269 
2.228964 
2.225863 
2.227929 
2.224008 
2.195616 
2.196960 
2.183284 
2.207073 
2.206070 
2.203971 
2.196730 
2.228768 
2.262135 
2.229528 
2.200988 
2.229629 
2.226604 
2.259498 
2.249243 
2.216505 
2.208136 
2.223287 
2.244869 
2.234126 
2.218478 
2.204037 
2.214809 
2.218158 
2.219074 
2.236338 
2.213337 
2.244755 
2.224296 
2.245053 
2.221372 
2.233639 
2.261253 
2.247223 
2.225476 
2.218458 
2.212143 
2.230181 
2.277808 
2.315433 
2.298574 
2.273699 
2.270987 
2.262344 
2.249263 
2.280766 
2.254257 
2.247893 
2.238708 
2.214901 
2.195760 
2.189317 
2.224947 
2.204580 
2.167322 
2.181463 
2.195199 
2.225474 
2.204499 
2.189939 
2.177619 
2.202893 
2.224103 
2.302115 
2.280400 
2.284658 
2.270038 
2.272104 
2.293437 
2.302910 
2.239889 
2.233261 
2.283780 
2.296630 
2.281426 
2.249125 
2.238058 
2.276199 
2.248408 
2.222331 
2.265518 
2.256622 
2.202620 
2.212556 
2.220019 
2.197194 
2.202421 
2.205185 
2.158376 
2.174546 
2.175764 
2.155010 
2.159044 
2.173085 
2.222958 
2.241891 
2.231530 
2.223454 
2.232957 
2.234473 
2.217392 
2.196860 
2.217166 
2.252540 
2.243044 
2.228163 
2.215273 
2.191118 
2.199488 
2.217724 
2.222718 
2.224956 
2.189159 
2.202845 
2.175384 
2.182089 
2.164861 
2.155143 
2.144523 
2.110688 
2.129035 
2.152765 
2.165746 
2.197688 
2.241803 
2.245954 
2.233592 
2.232630 
2.216039 
2.246509 
2.254613 
2.241503 
2.230800 
2.250550 
2.215302 
2.194858 
2.201204 
2.187397 
2.183145 
2.186614 
2.176807 
2.163559 
2.188745 
2.207177 
2.227765 
2.211469 
2.223828 
2.244985 
2.237247 
2.207798 
2.206575 
2.170226 
2.161125 
2.164401 
2.175261 
2.215407 
2.211690 
2.222440 
2.202795 
2.206371 
2.202344 
2.218234 
2.242432 
2.204191 
2.189899 
2.176921 
2.181100 
2.204548 
2.230388 
2.197894 
2.167192 
2.186652 
2.207829 
2.186276 
2.209258 
2.204120 
2.200984 
2.212410 
2.185070 
2.188024 
2.243808 
2.285924 
2.267566 
2.288176 
2.229319 
2.204232 
2.252892 
2.268782 
2.263200 
2.246187 
2.243150 
2.210953 
2.208086 
2.214355 
2.224689 
2.194535 
2.182321 
2.162940 
2.174950 
2.162134 
2.124448 
2.133479 
2.136862 
2.171389 
2.190879 
2.173378 
2.194492 
2.179294 
2.220497 
2.253267 
2.252585 
2.248282 
2.246019 
2.288600 
2.256308 
2.247714 
2.213142 
2.193945 
2.211704 
2.225384 
2.222516 
2.177766 
2.138259 
2.126768 
2.163373 
2.172345 
2.201372 
2.215804 
2.212805 
2.176567 
2.155346 
2.157923 
2.174448 
2.172871 
2.179103 
2.194474 
2.209238 
2.182954 
2.176730 
2.176363 
2.197741 
2.224724 
2.194854 
2.220829 
2.211336 
2.220503 
2.200990 
2.207097 
2.216563 
2.222415 
2.191186 
2.218921 
2.267134 
2.204649 
2.238413 
2.194275 
2.183574 
2.129521 
2.117711 
2.122472 
2.151203 
2.171081 
2.172940 
2.221792 
2.218132 
2.193818 
2.180816 
2.224722 
2.216147 
2.197911 
2.197069 
2.237193 
2.239586 
2.199813 
2.225236 
2.198588 
2.194088 
2.205963 
2.193442 
2.170571 
2.191327 
2.217760 
2.206085 
2.228888 
2.222303 
2.215006 
2.219461 
2.187914 
2.198552 
2.208201 
2.184890 
2.208239 
2.208334 
2.247572 
2.261542 
2.196060 
2.186257 
2.229783 
2.284392 
2.307079 
2.320538 
2.306285 
2.305609 
2.246265 
2.277388 
2.270223 
2.272892 
2.223741 
2.263021 
2.249586 
2.220218 
2.237874 
2.226278 
2.194690 
2.247390 
2.209695 
2.137778 
2.129472 
2.158129 
2.209798 
2.177473 
2.179193 
2.189025 
2.210122 
2.202956 
2.189163 
2.220749 
2.235365 
2.224780 
2.270701 
2.226023 
2.231365 
2.239955 
2.229540 
2.240288 
2.224891 
2.168722 
2.195392 
2.207621 
2.174127 
2.164054 
2.162563 
2.165027 
2.178145 
2.190137 
2.207429 
2.200349 
2.192757 
2.141225 
2.142235 
2.208796 
2.191924 
2.173702 
2.173714 
2.199345 
2.192750 
2.219143 
2.191107 
2.200961 
2.209900 
2.212437 
2.220147 
2.224007 
2.198600 
2.216183 
2.207801 
2.133740 
2.131709 
2.189719 
2.203763 
2.217418 
2.189430 
2.219465 
2.225955 
2.247248 
2.258904 
2.243669 
2.233266 
2.262303 
2.240992 
2.230634 
2.240105 
2.224846 
2.192006 
2.206819 
2.224086 
2.240824 
2.243628 
2.208907 
2.196250 
2.203789 
2.227766 
2.232145 
2.244653 
2.247624 
2.236325 
2.275540 
2.300033 
2.241114 
2.209265 
2.200579 
2.220297 
2.211259 
2.201841 
2.172787 
2.192261 
2.172727 
2.145685 
2.165502 
2.228012 
2.239645 
2.253988 
2.227856 
2.190580 
2.228205 
2.234446 
2.240345 
2.240137 
2.219227 
2.195634 
2.214679 
2.233320 
2.199313 
2.220068 
2.193445 
2.174440 
2.183537 
2.200365 
2.200164 
2.214113 
2.175701 
2.144934 
2.166909 
2.187207 
2.219173 
2.203823 
2.222932 
2.227680 
2.239337 
2.258464 
2.276940 
2.251417 
2.289720 
2.231628 
2.239544 
2.218445 
2.237085 
2.242844 
2.215415 
2.206169 
2.208026 
2.173808 
2.198093 
2.223896 
2.218427 
2.201027 
2.183909 
2.168152 
2.176361 
2.184858 
2.161402 
2.166162 
2.195171 
2.190725 
2.190234 
2.186876 
2.181938 
2.181971 
2.195052 
2.211771 
2.234536 
2.223987 
2.217150 
2.216259 
2.193993 
2.183023 
2.157481 
2.170459 
2.178076 
2.181776 
2.190188 
2.166061 
2.130070 
2.145768 
2.117301 
2.160012 
2.177363 
2.190695 
2.224505 
2.206270 
2.182240 
2.223734 
2.185628 
2.175469 
2.160317 
2.123889 
2.115091 
2.114606 
2.129986 
2.141401 
2.176623 
2.182261 
2.151241 
2.166643 
2.164328 
2.207369 
2.194986 
2.201198 
2.251160 
2.227679 
2.220522 
2.225290 
2.210288 
2.224584 
2.187490 
2.287514 
2.297519 
2.290693 
2.292224 
2.270938 
2.258670 
2.260829 
2.271488 
2.203545 
2.202713 
2.177252 
2.193169 
2.196081 
2.220558 
2.198994 
2.190548 
2.190183 
2.204657 
2.204497 
2.189788 
2.195456 
2.180837 
2.178664 
2.200667 
2.204317 
2.197358 
2.203183 
2.233143 
2.231005 
2.211400 
2.178994 
2.164392 
2.141705 
2.113480 
2.114996 
2.143132 
2.183645 
2.191496 
2.185891 
2.215883 
2.236610 
2.202077 
2.177319 
2.195234 
2.184282 
2.183155 
2.205428 
2.182400 
2.213723 
2.222690 
2.237460 
2.234411 
2.230799 
2.242299 
2.269497 
2.258494 
2.211146 
2.262527 
2.236288 
2.237502 
2.240925 
2.259739 
2.231558 
2.214214 
2.218280 
2.203419 
2.208968 
2.222508 
2.201490 
2.198361 
2.192019 
2.222355 
2.235160 
2.242923 
2.260210 
2.268629 
2.226966 
2.189873 
2.224638 
2.217043 
2.192352 
2.190628 
2.183466 
2.181634 
2.174694 
2.186236 
2.196490 
2.173822 
2.183581 
2.182402 
2.174917 
2.176292 
2.218708 
2.210081 
2.219328 
2.207863 
2.184365 
2.165526 
2.192327 
2.215302 
2.191739 
2.171938 
2.176834 
2.195829 
2.198045 
2.168134 
2.170346 
2.214965 
2.173191 
2.166249 
2.162256 
2.176241 
2.173327 
2.163788 
2.161656 
2.159684 
2.180455 
2.132259 
2.146186 
2.116917 
2.165928 
2.187977 
2.196128 
2.214913 
2.218247 
2.221165 
2.225260 
2.213455 
2.224379 
2.167320 
2.182725 
2.185257 
2.190945 
2.187705 
2.185308 
2.192953 
2.192296 
2.158472 
2.193088 
2.203516 
2.174959 
2.185670 
2.197694 
2.196625 
2.189435 
2.219094 
2.258490 
2.251663 
2.233625 
2.289452 
2.283274 
2.274777 
2.237383 
2.194758 
2.215023 
2.213153 
2.233817 
2.228794 
2.232049 
2.208266 
2.193172 
2.209814 
2.188863 
2.178518 
2.173570 
2.185126 
2.171706 
2.225325 
2.195823 
2.206683 
2.202304 
2.152895 
2.133730 
2.161085 
2.189159 
2.219981 
2.231965 
2.200569 
2.208200 
2.161989 
2.147240 
2.237650 
2.259402 
2.249059 
2.233523 
2.234225 
2.194817 
2.218717 
2.221561 
2.231656 
2.243080 
2.254631 
2.246243 
2.223790 
2.198099 
2.190035 
2.192239 
2.190528 
2.208701 
2.224405 
2.247937 
2.252902 
2.226907 
2.210624 
2.238024 
2.180689 
2.220001 
2.290993 
2.241335 
2.230434 
2.220577 
2.217735 
2.195987 
2.181059 
2.241858 
2.243727 
2.238006 
2.202168 
2.205028 
2.214945 
2.191606 
2.189121 
2.254715 
2.249666 
2.256821 
2.249168 
2.200329 
2.177559 
2.184665 
2.186309 
2.191720 
2.192766 
2.192515 
2.166393 
2.151432 
2.208577 
2.192881 
2.156286 
2.143339 
2.139878 
2.142095 
2.178303 
2.193082 
2.189676 
2.216864 
2.178481 
2.198545 
2.177052 
2.173777 
2.183344 
2.208370 
2.246365 
2.246381 
2.241866 
2.261961 
2.237372 
2.202980 
2.200661 
2.211442 
2.265118 
2.272494 
2.265081 
2.270863 
2.248699 
2.237381 
2.248784 
2.266255 
2.226907 
2.220583 
2.219309 
2.207900 
2.185749 
2.178649 
2.226886 
2.211411 
2.238448 
2.251408 
2.215439 
2.192894 
2.215466 
2.199433 
2.188457 
2.204077 
2.212018 
2.211806 
2.207757 
2.189135 
2.197290 
2.247727 
2.293451 
2.314707 
2.321088 
2.317455 
2.287619 
2.257112 
2.286116 
2.286242 
2.299797 
2.282730 
2.246709 
2.203753 
2.217315 
2.229796 
2.255425 
2.243206 
2.229995 
2.265146 
2.245300 
2.261261 
2.238503 
2.211090 
2.224196 
2.255542 
2.242781 
2.220011 
2.246597 
2.278551 
2.267486 
2.248584 
2.212536 
2.220096 
2.229989 
2.207444 
2.225944 
2.224489 
2.232047 
2.238195 
2.246923 
2.250522 
2.226730 
2.199612 
2.194586 
2.219105 
2.229380 
2.221238 
2.223945 
2.237480 
2.221969 
2.225219 
2.190445 
2.178496 
2.140600 
2.150463 
2.155605 
2.159421 
2.192336 
2.202015 
2.189702 
2.178890 
2.224513 
2.161187 
2.173590 
2.192074 
2.194697 
2.224474 
2.220008 
2.205624 
2.226327 
2.222238 
2.247433 
2.246266 
2.243992 
2.203680 
2.220309 
2.227332 
2.234783 
2.241400 
2.206510 
2.213358 
2.251630 
2.209334 
2.215762 
2.209803 
2.197351 
2.211199 
2.240756 
2.214471 
2.267696 
2.294739 
2.293148 
2.301025 
2.261751 
2.225058 
2.221971 
2.207480 
2.191374 
2.143693 
2.208538 
2.258518 
2.266349 
2.239526 
2.242167 
2.242200 
2.237142 
2.247764 
2.238426 
2.265129 
2.262967 
2.259829 
2.241982 
2.248354 
2.236691 
2.263261 
2.265282 
2.280731 
2.298319 
2.266962 
2.271678 
2.267714 
2.244678 
2.235039 
2.232698 
2.224586 
2.240375 
2.229390 
2.215031 
2.233756 
2.277642 
2.181800 
2.222449 
2.220931 
2.230531 
2.207213 
2.199839 
2.239787 
2.252805 
2.279244 
2.257480 
2.245537 
2.242638 
2.231497 
2.228929 
2.209139 
2.216229 
2.206805 
2.214609 
2.238024 
2.245349 
2.244544 
2.232272 
2.236375 
2.257416 
2.216577 
2.253489 
2.194127 
2.226948 
2.233921 
2.233719 
2.220689 
2.236722 
2.219736 
2.217139 
2.206209 
2.235170 
2.213694 
2.192982 
2.204973 
2.239636 
2.232156 
2.228775 
2.218640 
2.242266 
2.266451 
2.274515 
2.259697 
2.233343 
2.212897 
2.219050 
2.209813 
2.214035 
2.269019 
2.216250 
2.234049 
2.169768 
2.183521 
2.214215 
2.198210 
2.196680 
2.190592 
2.185948 
2.181247 
2.176009 
2.220890 
2.232634 
2.237370 
2.229844 
2.255095 
2.255703 
2.247280 
2.254436 
2.268132 
2.219433 
2.173480 
2.167150 
2.192371 
2.179482 
2.201381 
2.190463 
2.178342 
2.201545 
2.151059 
2.203407 
2.231814 
2.188309 
2.216327 
2.184887 
2.163895 
2.159256 
2.149100 
2.126891 
2.142508 
2.156896 
2.153344 
2.142763 
2.155005 
2.165542 
2.189148 
2.203690 
2.246845 
2.216366 
2.245276 
2.187081 
2.204356 
2.198411 
2.201781 
2.176117 
2.182069 
2.174650 
2.175515 
2.199030 
2.191333 
2.168436 
2.182382 
2.217142 
2.207605 
2.223997 
2.223696 
2.196752 
2.211019 
2.256777 
2.226621 
2.230433 
2.186667 
2.199110 
2.205795 
2.215239 
2.212090 
2.208789 
2.179428 
2.208090 
2.223831 
2.238192 
2.255113 
2.242415 
2.231981 
2.238104 
2.224904 
2.218049 
2.194926 
2.188347 
2.178503 
2.157079 
2.198075 
2.215016 
2.184860 
2.162529 
2.170459 
2.166658 
2.190568 
2.192125 
2.171287 
2.161508 
2.190731 
2.186038 
2.207857 
2.171333 
2.181443 
2.184213 
2.164462 
2.183471 
2.187816 
2.201551 
2.219217 
2.235172 
2.173226 
2.169600 
2.191381 
2.226997 
2.225797 
2.239756 
2.257395 
2.215167 
2.224577 
2.235367 
2.190072 
2.194618 
2.230760 
2.238385 
2.235921 
2.193683 
2.209361 
2.250146 
2.230953 
2.231931 
2.237217 
2.243245 
2.213696 
2.205438 
2.231070 
2.203694 
2.200001 
2.190635 
2.158262 
2.142034 
2.154432 
2.174151 
2.165253 
2.181929 
2.219769 
2.241249 
2.255707 
2.232214 
2.241873 
2.228349 
2.217422 
2.197339 
2.212055 
2.208133 
2.198880 
2.197041 
2.202582 
2.195851 
2.203782 
2.169057 
2.153780 
2.156938 
2.208686 
2.205935 
2.244027 
2.239547 
2.199277 
2.218261 
2.184410 
2.176589 
2.206609 
2.185378 
2.156191 
2.183872 
2.204202 
2.196609 
2.222957 
2.245531 
2.238236 
2.237728 
2.231266 
2.209775 
2.210627 
2.233970 
2.266728 
2.248388 
2.210366 
2.214173 
2.241968 
2.192038 
2.176126 
2.202842 
2.207285 
2.199378 
2.186567 
2.198665 
2.229104 
2.213151 
2.186854 
2.181012 
2.184620 
2.173940 
2.189032 
2.197786 
2.184573 
2.211275 
2.209269 
2.200181 
2.186729 
2.209945 
2.209231 
2.213768 
2.211861 
2.173524 
2.195596 
2.165376 
2.160227 
2.187472 
2.182269 
2.184605 
2.198886 
2.225838 
2.245027 
2.215881 
2.230503 
2.223772 
2.227484 
2.214376 
2.212091 
2.205308 
2.193136 
2.177735 
2.169634 
2.171877 
2.177293 
2.225466 
2.208509 
2.197789 
2.190953 
2.194772 
2.204450 
2.188393 
2.190809 
2.199070 
2.195074 
2.171696 
2.152283 
2.165725 
2.182649 
2.210520 
2.212375 
2.174492 
2.202859 
2.217467 
2.209454 
2.229970 
2.270796 
2.242889 
2.199305 
2.197244 
2.166681 
2.154978 
2.121068 
2.130293 
2.128324 
2.156411 
2.166209 
2.170816 
2.187637 
2.197991 
2.182149 
2.205378 
2.233829 
2.249937 
2.244838 
2.245010 
2.220794 
2.206153 
2.201543 
2.204868 
2.208138 
2.188319 
2.162416 
2.157963 
2.148797 
2.168414 
2.156582 
2.193524 
2.205274 
2.200903 
2.176922 
2.157044 
2.141544 
2.177728 
2.175753 
2.168198 
2.146438 
2.135218 
2.182279 
2.178403 
2.145985 
2.152628 
2.172656 
2.199775 
2.237313 
2.247012 
2.247485 
2.267555 
2.311374 
2.292916 
2.286354 
2.264378 
2.237860 
2.257704 
2.280916 
2.240544 
2.228661 
2.221133 
2.204260 
2.200893 
2.202643 
2.188338 
2.189336 
2.228359 
2.280949 
2.276689 
2.256534 
2.246771 
2.212583 
2.235895 
2.234823 
2.202739 
2.173346 
2.220693 
2.241745 
2.242833 
2.255320 
2.211344 
2.198347 
2.164791 
2.192816 
2.201097 
2.214610 
2.202158 
2.204793 
2.218436 
2.208145 
2.188445 
2.196602 
2.256881 
2.235394 
2.198705 
2.209192 
2.207535 
2.199130 
2.191119 
2.197362 
2.198070 
2.177806 
2.192644 
2.167579 
2.165619 
2.195219 
2.192629 
2.181341 
2.204099 
2.205702 
2.178745 
2.165961 
2.171397 
2.201145 
2.176323 
2.203027 
2.203077 
2.191458 
2.235706 
2.258155 
2.234820 
2.219837 
2.215987 
2.213518 
2.200181 
2.246523 
2.248874 
2.258652 
2.249089 
2.253934 
2.278014 
2.254049 
2.297703 
2.262265 
2.237336 
2.219923 
2.227744 
2.212827 
2.196926 
2.226572 
2.236008 
2.214834 
2.245531 
2.211411 
2.209567 
2.238611 
2.245179 
2.210714 
2.226107 
2.233807 
2.257784 
2.273424 
2.252205 
2.232659 
2.203719 
2.188215 
2.248585 
2.207495 
2.220161 
2.207337 
2.225479 
2.233223 
2.196017 
2.180653 
2.184667 
2.200256 
2.200669 
2.203599 
2.210758 
2.244105 
2.250410 
2.229863 
2.243431 
2.263334 
2.242912 
2.162582 
2.188277 
2.207348 
2.222860 
2.236234 
2.259720 
2.244196 
2.232846 
2.239040 
2.231183 
2.239765 
2.175274 
2.209075 
2.208341 
2.211040 
2.201738 
2.205915 
2.192452 
2.184102 
2.188277 
2.135591 
2.136909 
2.199696 
2.222874 
2.230846 
2.234542 
2.211288 
2.225171 
2.227066 
2.187717 
2.195844 
2.166325 
2.186270 
2.183366 
2.180060 
2.184454 
2.203381 
2.198242 
2.199197 
2.198192 
2.208352 
2.197109 
2.199740 
2.214697 
2.201685 
2.200029 
2.184626 
2.202196 
2.191267 
2.222283 
2.217578 
2.201279 
2.207521 
2.191540 
2.217713 
2.205126 
2.181106 
2.193497 
2.227296 
2.230020 
2.226222 
2.199554 
2.226988 
2.198784 
2.181696 
2.202186 
2.204188 
2.174765 
2.245113 
2.217868 
2.200076 
2.207650 
2.228437 
2.209162 
2.221271 
2.216725 
2.215463 
2.235841 
2.241640 
2.215383 
2.238851 
2.245768 
2.242650 
2.231951 
2.181343 
2.174785 
2.212181 
2.200204 
2.172085 
2.198153 
2.227893 
2.211107 
2.205121 
2.204464 
2.201666 
2.198876 
2.217149 
2.212576 
2.215445 
2.214387 
2.233834 
2.235866 
2.225597 
2.220237 
2.234034 
2.225248 
2.237095 
2.210393 
2.203773 
2.181629 
2.198767 
2.213017 
2.212302 
2.197903 
2.184359 
2.224178 
2.208165 
2.222992 
2.235235 
2.258838 
2.244152 
2.218005 
2.194769 
2.198709 
2.234622 
2.195191 
2.252486 
2.215178 
2.230397 
2.190687 
2.169545 
2.188689 
2.175022 
2.179359 
2.210872 
2.193731 
2.174524 
2.167263 
2.202304 
2.233656 
2.194790 
2.173051 
2.192386 
2.207063 
2.201535 
2.203186 
2.217186 
2.222393 
2.193536 
2.219015 
2.250025 
2.261626 
2.251873 
2.193916 
2.177273 
2.198634 
2.205780 
2.227037 
2.222849 
2.234812 
2.232343 
2.220098 
2.195952 
2.216361 
2.227873 
2.203159 
2.215050 
2.198342 
2.202595 
2.201032 
2.194287 
2.193599 
2.188701 
2.226594 
2.185297 
2.225462 
2.195577 
2.170691 
2.157242 
2.184202 
2.239364 
2.248859 
2.212474 
2.213658 
2.249531 
2.255223 
2.244706 
2.216770 
2.219346 
2.208339 
2.216522 
2.223873 
2.257980 
2.190218 
2.185542 
2.214221 
2.272627 
2.257911 
2.248707 
2.237688 
2.259138 
2.238860 
2.283273 
2.294302 
2.274820 
2.274839 
2.269280 
2.244019 
2.293624 
2.264569 
2.278305 
2.297251 
2.304651 
2.254020 
2.236491 
2.257774 
2.228872 
2.191352 
2.214148 
2.220224 
2.202803 
2.211660 
2.233480 
2.184686 
2.226776 
2.213733 
2.224470 
2.232190 
2.197229 
2.179494 
2.192168 
2.220675 
2.191188 
2.232502 
2.238161 
2.220565 
2.225408 
2.211499 
2.190260 
2.208744 
2.232480 
2.203199 
2.201509 
2.162533 
2.131248 
2.199233 
2.234959 
2.250247 
2.282036 
2.253276 
2.234770 
2.225824 
2.232694 
2.240001 
2.266228 
2.258660 
2.244455 
2.249020 
2.288232 
2.241281 
2.226529 
2.192539 
2.261412 
2.235360 
2.245363 
2.242140 
2.236406 
2.241315 
2.264253 
2.229672 
2.276260 
2.267022 
2.264712 
2.299361 
2.291709 
2.274844 
2.290657 
2.279879 
2.274016 
2.287774 
2.263527 
2.283110 
2.310308 
2.260254 
2.238141 
2.233133 
2.241710 
2.266554 
2.282712 
2.258434 
2.253267 
2.206364 
2.228155 
2.227941 
2.198897 
2.270008 
2.322856 
2.326657 
2.314754 
2.295743 
2.318911 
2.276920 
2.259702 
2.281972 
2.249602 
2.240531 
2.218768 
2.210614 
2.224341 
2.226619 
2.228923 
2.210147 
2.211124 
2.203574 
2.265203 
2.255815 
2.263299 
2.276455 
2.245155 
2.236981 
2.258906 
2.303809 
2.239428 
2.227833 
2.180549 
2.175605 
2.165442 
2.173348 
2.193974 
2.180226 
2.167950 
2.156040 
2.203605 
2.189280 
2.173753 
2.185314 
2.192568 
2.190822 
2.198769 
2.210000 
2.209479 
2.200280 
2.194902 
2.249633 
2.275586 
2.267582 
2.232444 
2.230033 
2.267749 
2.253189 
2.273415 
2.255028 
2.245836 
2.223639 
2.251405 
2.239819 
2.231933 
2.237342 
2.218733 
2.209439 
2.231326 
2.231775 
2.211532 
2.228474 
2.250044 
2.255166 
2.271065 
2.231625 
2.190304 
2.222721 
2.214959 
2.204750 
2.233698 
2.195634 
2.217694 
2.236369 
2.240971 
2.279065 
2.281144 
2.303043 
2.341027 
2.324947 
2.310589 
2.309431 
2.304921 
2.323716 
2.330705 
2.298735 
2.278958 
2.270754 
2.247236 
2.222684 
2.246461 
2.283604 
2.262244 
2.256005 
2.256018 
2.280627 
2.245806 
2.249605 
2.219721 
2.241979 
2.270228 
2.261941 
2.246442 
2.243332 
2.231611 
2.258688 
2.306735 
2.260825 
2.284951 
2.296246 
2.301031 
2.322444 
2.251022 
2.242931 
2.256832 
2.259638 
2.266231 
2.280618 
2.261875 
2.248387 
2.258144 
2.234210 
2.234968 
2.226521 
2.217441 
2.187558 
2.185472 
2.225468 
2.248557 
2.241947 
2.248917 
2.240240 
2.217826 
2.217251 
2.223730 
2.230738 
2.197759 
2.232516 
2.215093 
2.227517 
2.224204 
2.202688 
2.207486 
2.215089 
2.216692 
2.233234 
2.230412 
2.227363 
2.204835 
2.196723 
2.205519 
2.234640 
2.224683 
2.191430 
2.188575 
2.204983 
2.216704 
2.209149 
2.220178 
2.239835 
2.256405 
2.254623 
2.260767 
2.239387 
2.199501 
2.195633 
2.232847 
2.246601 
2.255252 
2.224150 
2.199223 
2.205250 
2.227315 
2.200608 
2.178984 
2.189706 
2.203650 
2.219189 
2.225839 
2.207398 
2.156163 
2.210756 
2.266239 
2.235642 
2.238323 
2.252416 
2.258535 
2.224308 
2.199089 
2.238100 
2.231351 
2.217392 
2.208156 
2.211692 
2.199347 
2.218576 
2.233606 
2.245955 
2.254670 
2.210517 
2.212733 
2.214783 
2.219749 
2.240468 
2.222968 
2.224476 
2.245047 
2.225357 
2.227896 
2.249685 
2.210156 
2.210915 
2.224142 
2.225326 
2.199942 
2.195907 
2.216501 
2.258617 
2.264817 
2.284059 
2.316858 
2.281035 
2.240847 
2.216393 
2.204025 
2.231953 
2.278853 
2.265097 
2.261830 
2.238972 
2.218411 
2.218912 
2.242560 
2.221348 
2.250527 
2.267472 
2.260365 
2.237354 
2.247595 
2.251721 
2.247135 
2.245978 
2.274919 
2.282593 
2.252719 
2.252754 
2.233381 
2.222909 
2.215254 
2.242057 
2.204432 
2.179101 
2.194626 
2.183459 
2.219571 
2.228775 
2.254603 
2.286102 
2.296737 
2.270127 
2.272867 
2.277983 
2.262963 
2.244526 
2.220952 
2.197969 
2.210848 
2.225191 
2.231134 
2.201891 
2.215532 
2.215110 
2.197203 
2.190576 
2.168748 
2.164038 
2.166973 
2.275602 
2.276574 
2.220684 
2.193647 
2.194683 
2.209027 
2.204405 
2.202273 
2.230335 
2.177256 
2.218889 
2.233017 
2.257729 
2.245694 
2.246314 
2.256300 
2.270143 
2.251774 
2.241737 
2.236820 
2.231213 
2.228971 
2.216469 
2.218739 
2.232760 
2.199694 
2.229047 
2.247439 
2.273053 
2.271788 
2.258575 
2.265235 
2.258671 
2.246188 
2.207761 
2.178671 
2.152818 
2.153119 
2.175678 
2.206531 
2.216985 
2.229542 
2.216449 
2.226856 
2.197176 
2.175404 
2.181099 
2.180674 
2.203974 
2.215271 
2.200352 
2.223447 
2.237952 
2.181014 
2.175383 
2.170281 
2.193225 
2.180361 
2.214522 
2.217660 
2.227668 
2.239720 
2.253169 
2.223602 
2.227165 
2.227035 
2.231019 
2.175150 
2.229820 
2.268421 
2.273630 
2.244046 
2.232260 
2.233187 
2.212997 
2.223262 
2.234424 
2.186201 
2.208179 
2.254756 
2.262899 
2.281965 
2.264943 
2.240639 
2.257828 
2.248707 
2.236768 
2.222758 
2.193128 
2.205083 
2.197266 
2.177602 
2.151244 
2.184714 
2.210408 
2.194834 
2.202863 
2.212741 
2.219276 
2.235964 
2.205138 
2.213573 
2.213303 
2.225249 
2.230682 
2.215330 
2.197210 
2.184325 
2.155795 
2.205248 
2.213191 
2.198855 
2.200336 
2.200975 
2.182725 
2.184966 
2.162656 
2.167249 
2.185946 
2.190393 
2.179239 
2.160488 
2.164178 
2.185690 
2.185307 
2.161647 
2.193983 
2.190446 
2.157957 
2.146278 
2.138167 
2.130473 
2.190090 
2.152494 
2.150071 
2.183346 
2.178103 
2.154369 
2.158086 
2.173022 
2.176962 
2.189437 
2.150277 
2.163593 
2.145633 
2.138239 
2.173524 
2.196920 
2.234952 
2.193805 
2.190525 
2.192498 
2.192621 
2.192098 
2.182573 
2.169699 
2.182363 
2.197411 
2.141328 
2.147949 
2.176489 
2.213818 
2.209030 
2.227789 
2.182029 
2.190086 
2.151363 
2.188703 
2.172696 
2.131311 
2.123890 
2.116822 
2.097383 
2.106933 
2.128841 
2.156215 
2.172336 
2.158472 
2.140790 
2.149870 
2.127096 
2.121374 
2.158140 
2.184768 
2.192269 
2.216594 
2.247186 
2.237790 
2.244998 
2.248532 
2.233190 
2.205046 
2.231309 
2.234929 
2.199579 
2.178607 
2.210532 
2.211909 
2.214786 
2.251167 
2.280201 
2.251729 
2.235988 
2.231247 
2.248646 
2.225533 
2.232204 
2.263809 
2.263216 
2.254713 
2.241094 
2.232439 
2.230815 
2.216118 
2.201543 
2.187774 
2.171599 
2.160442 
2.184020 
2.182164 
2.171977 
2.203073 
2.299358 
2.313078 
2.308044 
2.278680 
2.332846 
2.313792 
2.286489 
2.237178 
2.254783 
2.266817 
2.260119 
2.270937 
2.238040 
2.197680 
2.189971 
2.181604 
2.179772 
2.153976 
2.134878 
2.140822 
2.166578 
2.175732 
2.181280 
2.170024 
2.177119 
2.163783 
2.200695 
2.185240 
2.174299 
2.171336 
2.239489 
2.167632 
2.185009 
2.168582 
2.172274 
2.177624 
2.195919 
2.189093 
2.208587 
2.180626 
2.182862 
2.185479 
2.182308 
2.173489 
2.137202 
2.132280 
2.188260 
2.168374 
2.158165 
2.191062 
2.229614 
2.194963 
