4.394678 
4.443375 
4.434352 
4.413247 
4.394523 
4.351010 
4.353968 
4.366442 
4.351446 
4.336855 
4.360900 
4.338735 
4.301807 
4.277364 
4.275315 
4.274075 
4.287215 
4.283601 
4.267702 
4.264392 
4.270433 
4.291614 
4.281121 
4.256358 
4.241860 
4.240753 
4.236395 
4.257603 
4.261325 
4.257805 
4.271028 
4.270592 
4.277360 
4.283019 
4.285368 
4.281941 
4.285745 
4.282290 
4.275721 
4.273000 
4.280517 
4.284019 
4.286990 
4.279647 
4.286452 
4.279164 
4.276897 
4.284589 
4.273761 
4.284836 
4.272587 
4.268865 
4.276523 
4.276041 
4.274964 
4.277528 
4.270319 
4.270738 
4.270945 
4.280351 
4.266380 
4.270626 
4.275252 
4.274886 
4.297492 
4.290055 
4.294799 
4.293232 
4.295060 
4.357571 
4.357874 
4.356984 
4.352954 
4.338190 
4.323162 
4.312928 
4.309196 
4.281798 
4.257741 
4.248018 
4.234346 
4.240849 
4.292100 
4.293211 
4.290434 
4.297148 
4.292010 
4.289922 
4.285442 
4.289307 
4.278492 
4.284570 
4.287927 
4.290987 
4.289273 
4.305913 
4.282674 
4.295987 
4.300324 
4.290726 
4.294032 
4.299213 
4.299225 
4.297992 
4.299038 
4.310652 
4.315572 
4.318948 
4.312780 
4.315708 
4.308621 
4.293865 
4.290971 
4.289285 
4.298215 
4.293295 
4.291854 
4.287336 
4.294104 
4.283934 
4.271733 
4.282914 
4.286675 
4.294242 
4.289833 
4.290061 
4.308248 
4.322769 
4.323325 
4.327595 
4.327473 
4.317502 
4.324089 
4.318333 
4.314045 
4.314266 
4.311784 
4.306134 
4.299913 
4.315568 
4.288893 
4.432138 
4.487018 
4.566066 
4.523681 
4.378765 
4.295919 
4.313361 
4.434854 
4.495861 
4.484888 
4.461677 
4.430308 
4.402023 
4.351352 
4.326332 
4.316884 
4.299262 
4.290136 
4.286854 
4.279223 
4.283119 
4.270245 
4.266133 
4.262018 
4.283529 
4.285670 
4.262071 
4.252595 
4.255815 
4.266212 
4.275197 
4.280708 
4.272593 
4.271413 
4.284257 
4.274718 
4.279127 
4.277567 
4.280366 
4.284503 
4.287687 
4.292249 
4.287842 
4.285507 
4.288705 
4.294295 
4.286280 
4.283599 
4.292904 
4.286597 
4.284051 
4.293729 
4.299975 
4.291263 
4.289141 
4.304553 
4.327216 
4.357272 
4.373527 
4.375704 
4.376346 
4.376095 
4.367886 
4.366386 
4.380813 
4.390981 
4.393960 
4.434724 
4.439564 
4.432014 
4.422295 
4.415976 
4.406976 
4.406936 
4.408359 
4.402588 
4.398595 
4.401113 
4.399357 
4.393673 
4.398067 
4.394137 
4.397403 
4.400025 
4.398946 
4.397188 
4.397828 
4.386013 
4.388004 
4.389270 
4.387919 
4.382902 
4.489376 
4.524961 
4.551191 
4.558155 
4.528316 
4.488860 
4.440921 
4.367575 
4.328155 
4.285484 
4.287200 
4.339480 
4.341220 
4.339580 
4.326002 
4.317160 
4.321664 
4.324294 
4.325206 
4.316993 
4.308822 
4.308686 
4.298791 
4.287061 
4.286488 
4.287844 
4.296137 
4.297784 
4.279268 
4.282890 
4.277658 
4.273005 
4.263281 
4.267489 
4.274130 
4.264848 
4.258786 
4.258790 
4.266018 
4.268730 
4.267419 
4.261875 
4.272793 
4.400238 
4.423194 
4.421143 
4.405418 
4.393117 
4.380430 
4.470182 
4.467894 
4.438075 
4.401357 
4.360228 
4.309699 
4.271648 
4.262321 
4.234921 
4.231542 
4.262745 
4.276159 
4.274963 
4.285399 
4.284458 
4.282207 
4.263311 
4.277472 
4.271294 
4.285307 
4.323179 
4.351488 
4.297085 
4.245525 
4.230951 
4.260082 
4.261255 
4.272335 
4.251575 
4.246076 
4.247984 
4.266415 
4.236141 
4.253010 
4.243585 
4.262510 
4.302827 
4.357856 
4.348816 
4.327660 
4.305625 
4.290463 
4.296452 
4.320096 
4.278965 
4.260322 
4.284967 
4.419754 
4.477699 
4.472237 
4.455721 
4.434189 
4.401928 
4.360734 
4.315088 
4.284796 
4.290780 
4.281719 
4.286017 
4.303986 
4.293159 
4.282636 
4.264830 
4.264389 
4.261842 
4.265152 
4.274042 
4.251810 
4.272262 
4.280880 
4.283637 
4.282916 
4.283140 
4.264085 
4.280658 
4.269526 
4.263808 
4.277775 
4.284823 
4.297987 
4.293449 
4.279960 
4.268073 
4.275179 
4.273679 
4.264725 
4.274689 
4.274198 
4.272339 
4.271056 
4.265844 
4.278946 
4.290143 
4.286624 
4.277332 
4.276668 
4.274645 
4.270304 
4.272806 
4.266375 
4.271391 
4.280835 
4.295290 
4.277853 
4.273682 
4.283293 
4.296479 
4.288779 
4.303339 
4.293643 
4.275449 
4.289931 
4.393036 
4.479007 
4.496445 
4.490828 
4.480373 
4.476968 
4.453366 
4.426865 
4.389979 
4.349048 
4.268893 
4.261158 
4.302276 
4.297680 
4.297067 
4.294236 
4.281893 
4.298064 
4.298671 
4.297195 
4.313925 
4.301184 
4.308452 
4.298643 
4.310754 
4.308552 
4.311505 
4.300921 
4.291046 
4.300892 
4.300578 
4.303088 
4.297220 
4.289373 
4.289715 
4.298091 
4.276712 
4.264211 
4.289388 
4.287782 
4.273314 
4.288451 
4.299468 
4.311207 
4.306290 
4.311760 
4.320448 
4.331208 
4.339923 
4.334419 
4.334379 
4.354909 
4.341605 
4.336229 
4.346231 
4.344314 
4.359991 
4.357806 
4.355990 
4.366366 
4.360149 
4.374202 
4.376913 
4.378565 
4.376338 
4.392488 
4.379614 
4.376203 
4.375348 
4.380445 
4.376315 
4.369445 
4.372873 
4.368794 
4.373243 
4.366706 
4.360760 
4.343902 
4.357586 
4.347681 
4.338549 
4.362792 
4.375189 
4.347452 
4.342202 
4.327890 
4.311136 
4.297491 
4.297429 
4.297311 
4.285100 
4.287202 
4.284454 
4.274939 
4.279509 
4.275037 
4.269718 
4.267414 
4.267330 
4.267184 
4.278120 
4.260758 
4.261562 
4.263773 
4.250976 
4.257678 
4.253385 
4.262657 
4.254707 
4.259042 
4.273657 
4.284394 
4.299104 
4.290761 
4.278642 
4.292700 
4.293315 
4.285721 
4.286642 
4.292150 
4.281546 
4.289516 
4.291089 
4.288536 
4.281667 
4.298360 
4.277360 
4.284244 
4.280338 
4.278266 
4.273754 
4.276023 
4.281136 
4.270191 
4.263204 
4.272783 
4.267706 
4.271870 
4.250483 
4.242476 
4.256828 
4.263003 
4.260662 
4.251519 
4.253393 
4.256217 
4.272038 
4.260282 
4.277862 
4.296711 
4.293242 
4.293928 
4.298274 
4.296118 
4.296453 
4.283148 
4.273478 
4.271741 
4.266848 
4.270235 
4.276540 
4.275723 
4.271679 
4.276475 
4.278321 
4.282534 
4.295090 
4.430403 
4.464042 
4.472988 
4.482975 
4.472925 
4.473340 
4.463433 
4.454446 
4.447243 
4.419688 
4.385193 
4.361958 
4.339821 
4.318026 
4.301475 
4.299916 
4.304572 
4.405056 
4.439628 
4.427563 
4.391637 
4.371836 
4.345474 
4.323502 
4.338788 
4.328292 
4.320523 
4.303383 
4.284499 
4.268540 
4.250167 
4.222765 
4.225923 
4.216883 
4.216546 
4.238684 
4.261465 
4.256508 
4.248561 
4.247039 
4.230218 
4.227228 
4.231864 
4.223494 
4.219332 
4.223699 
4.230716 
4.237915 
4.238379 
4.235511 
4.255211 
4.247147 
4.250513 
4.257478 
4.256546 
4.262986 
4.267808 
4.267959 
4.273759 
4.271459 
4.266782 
4.259228 
4.264931 
4.269544 
4.282452 
4.283769 
4.287861 
4.281997 
4.277133 
4.274105 
4.262158 
4.265135 
4.266317 
4.284856 
4.299550 
4.340417 
4.370380 
4.352497 
4.312647 
4.259820 
4.251959 
4.285940 
4.294174 
4.288380 
4.281066 
4.272860 
4.263532 
4.269120 
4.256149 
4.246193 
4.268242 
4.261629 
4.264622 
4.270195 
4.273220 
4.275089 
4.285665 
4.269732 
4.269547 
4.287793 
4.294320 
4.269888 
4.268385 
4.270951 
4.257029 
4.269583 
4.267484 
4.265254 
4.288378 
4.283668 
4.296468 
4.309872 
4.307424 
4.322857 
4.331024 
4.331017 
4.322234 
4.314106 
4.313701 
4.317685 
4.303356 
4.303156 
4.305698 
4.291828 
4.299521 
4.306514 
4.289408 
4.286300 
4.260050 
4.250171 
4.244091 
4.241116 
4.231905 
4.237975 
4.228017 
4.264982 
4.384174 
4.500900 
4.500783 
4.498423 
4.477813 
4.471840 
4.486780 
4.467149 
4.440004 
4.409370 
4.381016 
4.361893 
4.342752 
4.327765 
4.294856 
4.284118 
4.277181 
4.236668 
4.237292 
4.230852 
4.232111 
4.225789 
4.220339 
4.229701 
4.214649 
4.213045 
4.219456 
4.222852 
4.224633 
4.225495 
4.235671 
4.248382 
4.238456 
4.247881 
4.261162 
4.280260 
4.280518 
4.274242 
4.277159 
4.284444 
4.292683 
4.273099 
4.277617 
4.269443 
4.269291 
4.287670 
4.280893 
4.272160 
4.293489 
4.282991 
4.284421 
4.291985 
4.286218 
4.280103 
4.286638 
4.289768 
4.298362 
4.308727 
4.301077 
4.305230 
4.294421 
4.308838 
4.300794 
4.305731 
4.304614 
4.449681 
4.460280 
4.474225 
4.398729 
4.379506 
4.355024 
4.342506 
4.338022 
4.330015 
4.349261 
4.330923 
4.369310 
4.373358 
4.370638 
4.359929 
4.368099 
4.351441 
4.329700 
4.361354 
4.402079 
4.352239 
4.334436 
4.310493 
4.305844 
4.305724 
4.301511 
4.305052 
4.312280 
4.296118 
4.340919 
4.427293 
4.461478 
4.474996 
4.462074 
4.460603 
4.475055 
4.459496 
4.458645 
4.437039 
4.421440 
4.404265 
4.367321 
4.339164 
4.302516 
4.306756 
4.312326 
4.317826 
4.305851 
4.290203 
4.305909 
4.302005 
4.310795 
4.291613 
4.296312 
4.301000 
4.315775 
4.334419 
4.333390 
4.327480 
4.335173 
4.315325 
4.329440 
4.322786 
4.325329 
4.312609 
4.305684 
4.320457 
4.321765 
4.311628 
4.322414 
4.323903 
4.319200 
4.317679 
4.316163 
4.303771 
4.329782 
4.325708 
4.320285 
4.315665 
4.306222 
4.314596 
4.325117 
4.314814 
4.314015 
4.293276 
4.298716 
4.311862 
4.299529 
4.316388 
4.521367 
4.544949 
4.531222 
4.515421 
4.455193 
4.403774 
4.371715 
4.327927 
4.335806 
4.330732 
4.329049 
4.334155 
4.328995 
4.321670 
4.326291 
4.338012 
4.331632 
4.338095 
4.335646 
4.346921 
4.339354 
4.340198 
4.329350 
4.332141 
4.337018 
4.334081 
4.323515 
4.322839 
4.326971 
4.331492 
4.325536 
4.331487 
4.314948 
4.315371 
4.319455 
4.316089 
4.324221 
4.325958 
4.319608 
4.322130 
4.325561 
4.323834 
4.330464 
4.318951 
4.329874 
4.334328 
4.333207 
4.332912 
4.330572 
4.325973 
4.333471 
4.352232 
4.358803 
4.354735 
4.349969 
4.352427 
4.352371 
4.356645 
4.404159 
4.503671 
4.513258 
4.516147 
4.498581 
4.442647 
4.407935 
4.381850 
4.379685 
4.381004 
4.357892 
4.446257 
4.412112 
4.398612 
4.393618 
4.408422 
4.387926 
4.397374 
4.405819 
4.378688 
4.364137 
4.332463 
4.331209 
4.347164 
4.345482 
4.349754 
4.349043 
4.353687 
4.353314 
4.338492 
4.343233 
4.360135 
4.364959 
4.365726 
4.365741 
4.352189 
4.358246 
4.371020 
4.502565 
4.588703 
4.608622 
4.623169 
4.608824 
4.616416 
4.601837 
4.575008 
4.567400 
4.536752 
4.507606 
4.476686 
4.439533 
4.411802 
4.370061 
4.347744 
4.328258 
4.301077 
4.298903 
4.290100 
4.291379 
4.301271 
4.297182 
4.299386 
4.275490 
4.290441 
4.288478 
4.286128 
4.278622 
4.275493 
4.288334 
4.302781 
4.295393 
4.315291 
4.305306 
4.303390 
4.299121 
4.318015 
4.318278 
4.326186 
4.335859 
4.332663 
4.326751 
4.338422 
4.324028 
4.334191 
4.339127 
4.329385 
4.334415 
4.318085 
4.310480 
4.321282 
4.330513 
4.344577 
4.332621 
4.334665 
4.324190 
4.333692 
4.344052 
4.340988 
4.338143 
4.333976 
4.337542 
4.336987 
4.350203 
4.340605 
4.344853 
4.346679 
4.342571 
4.338102 
4.338687 
4.352957 
4.348657 
4.339418 
4.358546 
4.357858 
4.353993 
4.348663 
4.333576 
4.333575 
4.344637 
4.342723 
4.326693 
4.343594 
4.326998 
4.340303 
4.334500 
4.332145 
4.335678 
4.343163 
4.346320 
4.340210 
4.349623 
4.336345 
4.333996 
4.320744 
4.324325 
4.331445 
4.342166 
4.339437 
4.340473 
4.338067 
4.340552 
4.345274 
4.342752 
4.344469 
4.382554 
4.421869 
4.495173 
4.535305 
4.548902 
4.555352 
4.563571 
4.554419 
4.539014 
4.534551 
4.512713 
4.503442 
4.478286 
4.457317 
4.434138 
4.379531 
4.348554 
4.306705 
4.326625 
4.311175 
4.306272 
4.316765 
4.297522 
4.299634 
4.303681 
4.307379 
4.308526 
4.299922 
4.311554 
4.313753 
4.305881 
4.317189 
4.312510 
4.319047 
4.321085 
4.322234 
4.326783 
4.317513 
4.319828 
4.313860 
4.325460 
4.323224 
4.329873 
4.341851 
4.343986 
4.344725 
4.335275 
4.337752 
4.364433 
4.464488 
4.465241 
4.450089 
4.431124 
4.367743 
4.319648 
4.322257 
4.348766 
4.346243 
4.349054 
4.350836 
4.338256 
4.320673 
4.321063 
4.312702 
4.314606 
4.455230 
4.444946 
4.417193 
4.411084 
4.377453 
4.335895 
4.322344 
4.329845 
4.328152 
4.324342 
4.324437 
4.330637 
4.326463 
4.340662 
4.372327 
4.371896 
4.364729 
4.360420 
4.341733 
4.345596 
4.338525 
4.347176 
4.357399 
4.350020 
4.340040 
4.359222 
4.352546 
4.355246 
4.346630 
4.354332 
4.350915 
4.351480 
4.348267 
4.422247 
4.521843 
4.556373 
4.542162 
4.558955 
4.540999 
4.506994 
4.465714 
4.457668 
4.445708 
4.413763 
4.401452 
4.387006 
4.372635 
4.358624 
4.349049 
4.335110 
4.328341 
4.337014 
4.361235 
4.290527 
4.307906 
4.319518 
4.314015 
4.312608 
4.321434 
4.314999 
4.315520 
4.318142 
4.315479 
4.325791 
4.324564 
4.328572 
4.325853 
4.318876 
4.312936 
4.326746 
4.329845 
4.324698 
4.322075 
4.333366 
4.332968 
4.331787 
4.323624 
4.328936 
4.324308 
4.326179 
4.343460 
4.337255 
4.344498 
4.340270 
4.342547 
4.351304 
4.336423 
4.337982 
4.334206 
4.339429 
4.342966 
4.343217 
4.336679 
4.339943 
4.343937 
4.342566 
4.342122 
4.353238 
4.350334 
4.363079 
4.349151 
4.342878 
4.345329 
4.337479 
4.342789 
4.344309 
4.354447 
4.352244 
4.362184 
4.359722 
4.358147 
4.355065 
4.367192 
4.362921 
4.360556 
4.367292 
4.369257 
4.364566 
4.362338 
4.361781 
4.368986 
4.364271 
4.363610 
4.372681 
4.383515 
4.367341 
4.357965 
4.349002 
4.360018 
4.386098 
4.402428 
4.401377 
4.413014 
4.420774 
4.384782 
4.344134 
4.336474 
4.339672 
4.341570 
4.368654 
4.370686 
4.362808 
4.364817 
4.372988 
4.378340 
4.377993 
4.365663 
4.354791 
4.358542 
4.352175 
4.355423 
4.369784 
4.364269 
4.395753 
4.378610 
4.364230 
4.326412 
4.338608 
4.335319 
4.356586 
4.356930 
4.349821 
4.369715 
4.384435 
4.387061 
4.389709 
4.376365 
4.389080 
4.386981 
4.382929 
4.377432 
4.403130 
4.396173 
4.365975 
4.387549 
4.383914 
4.378539 
4.392322 
4.401399 
4.401449 
4.397484 
4.405481 
4.408290 
4.406681 
4.405516 
4.410483 
4.413905 
4.409823 
4.382500 
4.401563 
4.398061 
4.368132 
4.354337 
4.326643 
4.353110 
4.350707 
4.345776 
4.349230 
4.338018 
4.340514 
4.335479 
4.336254 
4.338348 
4.335237 
4.341970 
4.336229 
4.344049 
4.351329 
4.343718 
4.342311 
4.350645 
4.358482 
4.348913 
4.354631 
4.365324 
4.372733 
4.363379 
4.359854 
4.364142 
4.364577 
4.368556 
4.369760 
4.375103 
4.384106 
4.389240 
4.384636 
4.404796 
4.403573 
4.422038 
4.414273 
4.426884 
4.415647 
4.397355 
4.401876 
4.378571 
4.375912 
4.383476 
4.377948 
4.383456 
4.372898 
4.382103 
4.369084 
4.355455 
4.366927 
4.362277 
4.349346 
4.375238 
4.366641 
4.375295 
4.394003 
4.434703 
4.436024 
4.421980 
4.419493 
4.414652 
4.414187 
4.423909 
4.445266 
4.540213 
4.547742 
4.540958 
4.525903 
4.498996 
4.498067 
4.476706 
4.449749 
4.420384 
4.413788 
4.395319 
4.387506 
4.382837 
4.379375 
4.377524 
4.372110 
4.372742 
4.356843 
4.364217 
4.352389 
4.379426 
4.391175 
4.401962 
4.385272 
4.397000 
4.401190 
4.408344 
4.391005 
4.392223 
4.383616 
4.392260 
4.386337 
4.384320 
4.394217 
4.396127 
4.401408 
4.383299 
4.374500 
4.367567 
4.356984 
4.372389 
4.381198 
4.383006 
4.365467 
4.378497 
4.373480 
4.362534 
4.368070 
4.367442 
4.364453 
4.384368 
4.399472 
4.406309 
4.412019 
4.409486 
4.405327 
4.409404 
4.408778 
4.383629 
4.401685 
4.414233 
4.397892 
4.403922 
4.399178 
4.388183 
4.375308 
4.373005 
4.378286 
4.376989 
4.382607 
4.384527 
4.387433 
4.383741 
4.395858 
4.392979 
4.400343 
4.383440 
4.373770 
4.391417 
4.394205 
4.382063 
4.395598 
4.415930 
4.421782 
4.421442 
4.419586 
4.413336 
4.405230 
4.400796 
4.411910 
4.405190 
4.405837 
4.404671 
4.390219 
4.395810 
4.394357 
4.401349 
4.420450 
4.417670 
4.420935 
4.428286 
4.456392 
4.476977 
4.499863 
4.509965 
4.517964 
4.530936 
4.539525 
4.543788 
4.538357 
4.540180 
4.534718 
4.529754 
4.527951 
4.548119 
4.532765 
4.535211 
4.536491 
4.537566 
4.533579 
4.509195 
4.510319 
4.500427 
4.500023 
4.503051 
4.511631 
4.503661 
4.486468 
4.484832 
4.498513 
4.488093 
4.504694 
4.472664 
4.463701 
4.472690 
4.482915 
4.476589 
4.476305 
4.482785 
4.468944 
4.471089 
4.453175 
4.459769 
4.442667 
4.444059 
4.432340 
4.433290 
4.426949 
4.457700 
4.447023 
4.446618 
4.440128 
4.430873 
4.425549 
4.434595 
4.418091 
4.420526 
4.439646 
4.438539 
4.451732 
4.426924 
4.433222 
4.424351 
4.428794 
4.425408 
4.424900 
4.427755 
4.426862 
4.415378 
4.421417 
4.411209 
4.429628 
4.421762 
4.428348 
4.432325 
4.452477 
4.452290 
4.457070 
4.445013 
4.441395 
4.446499 
4.443376 
4.432966 
4.435958 
4.434874 
4.427120 
4.443279 
4.433839 
4.425764 
4.429311 
4.431522 
4.434500 
4.431303 
4.434547 
4.437984 
4.436759 
4.420024 
4.407976 
4.426760 
4.430297 
4.423560 
4.414871 
4.426395 
4.420759 
4.404602 
4.399660 
4.399183 
4.401746 
4.404623 
4.407507 
4.410567 
4.424123 
4.443668 
4.442769 
4.441517 
4.445810 
4.446753 
4.443491 
4.428754 
4.435210 
4.432775 
4.441970 
4.454809 
4.447088 
4.448224 
4.430901 
4.446596 
4.440408 
4.432432 
4.436263 
4.439235 
4.458788 
4.449889 
4.440670 
4.430596 
4.425893 
4.418001 
4.427802 
4.438588 
4.447545 
4.439000 
4.441889 
4.439670 
4.438477 
4.443201 
4.429391 
4.428833 
4.434391 
4.441925 
4.452992 
4.453546 
4.449398 
4.456159 
4.463477 
4.465532 
4.452432 
4.429704 
4.435723 
4.450445 
4.449597 
4.435538 
4.435793 
4.447312 
4.449577 
4.448596 
4.461208 
4.452879 
4.451386 
4.461433 
4.468584 
4.461705 
4.456782 
4.446390 
4.446871 
4.451119 
4.453790 
4.458670 
4.453442 
4.451147 
4.457303 
4.458724 
4.479973 
4.513032 
4.524500 
4.526598 
4.500555 
4.496546 
4.492312 
4.481656 
4.471122 
4.469744 
4.462832 
4.473390 
4.472967 
4.478768 
4.462618 
4.465267 
4.472433 
4.490996 
4.480021 
4.471441 
4.471191 
4.469754 
4.468614 
4.462616 
4.471564 
4.462128 
4.461506 
4.470326 
4.477223 
4.476276 
4.485959 
4.483463 
4.458947 
4.455778 
4.463572 
4.465272 
4.489689 
4.488303 
4.490576 
4.484550 
4.471195 
4.467969 
4.465027 
4.456057 
4.468625 
4.472867 
4.470769 
4.474845 
4.474136 
4.462866 
4.483909 
4.477212 
4.471489 
4.476784 
4.472795 
4.457389 
4.456678 
4.460453 
4.460203 
4.460303 
4.439089 
4.444127 
4.443983 
4.434430 
4.436640 
4.437375 
4.442543 
4.430436 
4.425739 
4.421378 
4.427297 
4.432056 
4.421623 
4.451122 
4.444699 
4.436259 
4.438505 
4.429189 
4.450517 
4.436086 
4.436605 
4.443210 
4.425866 
4.429440 
4.437018 
4.429816 
4.423802 
4.431664 
4.441490 
4.459969 
4.458240 
4.457766 
4.448737 
4.446818 
4.439063 
4.448954 
4.458490 
4.452747 
4.447253 
4.447515 
4.453387 
4.449978 
4.446732 
4.440965 
4.436145 
4.437027 
4.449807 
4.445619 
4.456290 
4.440302 
4.450403 
4.453958 
4.456827 
4.462599 
4.469805 
4.466549 
4.456723 
4.590191 
4.685317 
4.741839 
4.762975 
4.761234 
4.761990 
4.758904 
4.736777 
4.708661 
4.674077 
4.619948 
4.546207 
4.482506 
4.425183 
4.366189 
4.310285 
4.280003 
4.253767 
4.229959 
4.192645 
4.173885 
4.161932 
4.156765 
4.159181 
4.151899 
4.179506 
4.149490 
4.177070 
4.181056 
4.194113 
4.220523 
4.218495 
4.218347 
4.226558 
4.232444 
4.249634 
4.258839 
4.270943 
4.264899 
4.281704 
4.285730 
4.293363 
4.321134 
4.330226 
4.382996 
4.450313 
4.451609 
4.450355 
4.468589 
4.456734 
4.454106 
4.454234 
4.445421 
4.443021 
4.420654 
4.409054 
4.409473 
4.401667 
4.389159 
4.377725 
4.381099 
4.353310 
4.328885 
4.322599 
4.336112 
4.336890 
4.330183 
4.317782 
4.319216 
4.335411 
4.324587 
4.315086 
4.314212 
4.344651 
4.340186 
4.352878 
4.360418 
4.361428 
4.372427 
4.370586 
4.368062 
4.384236 
4.381274 
4.380765 
4.381538 
4.400347 
4.391332 
4.447126 
4.380952 
4.399082 
4.425045 
4.426400 
4.418699 
4.420940 
4.418187 
4.393883 
4.402598 
4.396273 
4.387011 
4.382404 
4.383148 
4.387704 
4.388060 
4.380819 
4.368603 
4.383012 
4.382357 
4.372709 
4.373560 
4.352861 
4.355370 
4.360337 
4.361462 
4.369398 
4.362827 
4.359271 
4.358853 
4.361728 
4.352296 
4.371536 
4.383315 
4.380028 
4.384110 
4.379071 
4.369585 
4.366496 
4.375804 
4.374968 
4.364384 
4.375500 
4.400175 
4.398335 
4.391200 
4.392477 
4.382948 
4.389321 
4.371513 
4.391126 
4.385820 
4.389474 
4.383964 
4.397697 
4.385587 
4.400996 
4.391886 
4.400565 
4.393979 
4.407391 
4.394730 
4.401977 
4.395811 
4.391909 
4.394004 
4.394954 
4.388625 
4.419313 
4.441971 
4.402467 
4.389415 
4.454940 
4.493637 
4.490598 
4.473920 
4.444182 
4.398815 
4.379301 
4.370915 
4.354415 
4.370896 
4.387851 
4.402106 
4.379308 
4.400394 
4.399186 
4.415897 
4.423988 
4.440111 
4.453098 
4.444573 
4.452623 
4.459314 
4.456304 
4.466198 
4.461183 
4.464077 
4.461161 
4.456559 
4.448451 
4.434452 
4.426362 
4.416225 
4.409401 
4.413038 
4.405752 
4.405812 
4.404205 
4.387352 
4.379621 
4.371698 
4.377103 
4.357985 
4.355945 
4.358490 
4.357276 
4.364460 
4.360140 
4.381027 
4.382522 
4.373673 
4.376041 
4.400132 
4.404999 
4.396546 
4.389317 
4.377248 
4.388762 
4.390197 
4.374066 
4.384008 
4.381776 
4.377297 
4.373206 
4.374836 
4.355583 
4.346519 
4.349777 
4.352070 
4.356618 
4.365287 
4.365024 
4.384350 
4.374661 
4.371578 
4.372388 
4.377101 
4.376675 
4.358283 
4.369864 
4.378278 
4.379272 
4.379492 
4.369913 
4.366304 
4.372621 
4.382181 
4.380718 
4.384444 
4.380196 
4.382272 
4.378372 
4.383908 
4.382827 
4.377612 
4.379912 
4.381055 
4.392253 
4.386358 
4.397143 
4.413697 
4.396080 
4.383823 
4.388786 
4.389242 
4.405165 
4.414894 
4.422879 
4.422424 
4.422405 
4.412122 
4.423477 
4.417845 
4.412204 
4.414042 
4.412263 
4.413527 
4.414999 
4.399045 
4.388920 
4.406955 
4.407201 
4.400810 
4.402742 
4.406707 
4.406064 
4.410963 
4.406675 
4.413434 
4.409353 
4.398967 
4.401187 
4.417051 
4.403549 
4.413580 
4.405818 
4.415584 
4.453203 
4.454429 
4.453479 
4.466696 
4.466304 
4.450212 
4.443216 
4.453350 
4.451351 
4.444276 
4.455587 
4.447702 
4.434706 
4.429776 
4.584546 
4.656813 
4.674549 
4.664175 
4.633506 
4.572341 
4.519175 
4.484957 
4.469019 
4.450203 
4.442112 
4.425850 
4.404692 
4.406432 
4.381015 
4.372800 
4.360363 
4.345532 
4.343669 
4.328220 
4.338541 
4.344928 
4.401588 
4.462074 
4.474936 
4.488634 
4.490715 
4.483083 
4.462812 
4.467006 
4.432309 
4.414306 
4.395183 
4.383071 
4.356840 
4.353101 
4.334863 
4.333150 
4.319209 
4.320897 
4.313315 
4.309705 
4.330599 
4.325139 
4.330119 
4.325697 
4.337707 
4.330600 
4.345670 
4.348372 
4.338252 
4.340821 
4.359467 
4.371391 
4.358892 
4.361868 
4.372031 
4.382870 
4.378711 
4.398999 
4.383301 
4.382204 
4.376859 
4.381826 
4.379709 
4.375122 
4.376485 
4.385003 
4.375570 
4.393280 
4.392583 
4.394467 
4.405664 
4.401137 
4.387387 
4.396336 
4.389572 
4.386064 
4.388641 
4.381048 
4.391662 
4.390412 
4.396784 
4.382654 
4.383348 
4.394016 
4.386845 
4.383419 
4.378072 
4.377727 
4.358624 
4.367857 
4.363554 
4.376726 
4.370440 
4.355176 
4.361580 
4.369134 
4.353278 
4.400226 
4.411742 
4.418812 
4.438934 
4.422423 
4.427059 
4.421599 
4.391692 
4.382854 
4.398191 
4.376743 
4.389220 
4.425030 
4.427437 
4.437495 
4.432039 
4.421505 
4.398108 
4.386143 
4.363733 
4.340259 
4.324168 
4.312350 
4.317019 
4.309608 
4.311831 
4.339875 
4.356762 
4.354810 
4.365007 
4.379367 
4.362514 
4.330843 
4.311703 
4.289834 
4.277516 
4.282527 
4.286210 
4.287915 
4.260314 
4.269635 
4.284492 
4.290380 
4.282201 
4.303202 
4.308174 
4.327094 
4.329131 
4.339560 
4.315848 
4.333982 
4.343732 
4.340995 
4.350273 
4.361116 
4.352579 
4.339961 
4.359800 
4.348237 
4.353846 
4.345331 
4.352847 
4.332964 
4.342037 
4.345195 
4.335652 
4.336429 
4.346857 
4.349720 
4.345329 
4.328415 
4.346713 
4.352479 
4.351450 
4.353079 
4.350470 
4.349884 
4.353297 
4.373672 
4.373252 
4.382428 
4.372043 
4.377960 
4.387121 
4.396297 
4.387124 
4.390088 
4.403841 
4.398107 
4.405100 
4.413808 
4.399347 
4.408848 
4.400208 
4.414325 
4.433339 
4.425117 
4.427589 
4.433628 
4.431285 
4.441171 
4.439839 
4.444356 
4.440591 
4.443796 
4.436599 
4.423349 
4.449278 
4.452167 
4.450445 
4.412339 
4.415541 
4.399048 
4.402908 
4.378336 
4.382834 
4.382143 
4.374795 
4.371563 
4.345486 
4.359228 
4.396590 
4.410177 
4.420798 
4.424539 
4.413428 
4.416814 
4.408518 
4.407814 
4.416560 
4.403586 
4.367472 
4.365679 
4.422366 
4.567191 
4.620712 
4.640111 
4.627174 
4.649605 
4.652905 
4.628984 
4.633308 
4.626807 
4.587676 
4.571296 
4.548510 
4.523323 
4.508666 
4.466874 
4.426691 
4.408954 
4.357327 
4.308237 
4.333125 
4.357209 
4.349666 
4.359449 
4.376441 
4.366057 
4.372663 
4.380112 
4.366004 
4.369185 
4.368412 
4.373007 
4.371093 
4.360838 
4.359823 
4.351368 
4.369180 
4.380511 
4.377670 
4.379079 
4.375319 
4.382394 
4.392551 
4.385354 
4.393024 
4.390673 
4.395912 
4.390286 
4.399728 
4.396568 
4.404200 
4.400500 
4.403933 
4.405367 
4.418835 
4.414348 
4.398163 
4.409025 
4.399640 
4.401858 
4.402402 
4.396244 
4.388717 
4.392998 
4.388624 
4.378606 
4.378879 
4.357449 
4.361458 
4.352684 
4.361635 
4.384779 
4.378259 
4.380560 
4.407799 
4.413567 
4.422473 
4.402787 
4.402091 
4.398009 
4.368209 
4.372983 
4.352541 
4.346023 
4.345577 
4.329462 
4.305823 
4.290759 
4.289406 
4.291344 
4.271532 
4.266325 
4.262057 
4.270055 
4.271372 
4.263847 
4.262799 
4.270516 
4.270831 
4.269395 
4.276341 
4.281495 
4.273021 
4.273646 
4.454563 
4.625134 
4.637484 
4.641037 
4.639372 
4.623043 
4.594294 
4.574827 
4.514995 
4.481665 
4.408855 
4.356641 
4.319956 
4.302234 
4.278318 
4.263879 
4.258836 
4.258543 
4.262981 
4.248411 
4.244748 
4.241535 
4.231913 
4.225374 
4.228174 
4.219924 
4.221563 
4.225038 
4.241023 
4.250413 
4.257821 
4.256882 
4.287951 
4.287775 
4.282738 
4.299905 
4.296497 
4.302086 
4.314128 
4.319186 
4.306756 
4.303871 
4.293825 
4.308005 
4.314876 
4.319298 
4.320742 
4.307827 
4.308223 
4.310544 
4.313996 
4.304828 
4.309845 
4.318064 
4.327623 
4.329564 
4.338490 
4.340919 
4.336362 
4.348879 
4.356097 
4.338626 
4.338812 
4.342558 
4.333364 
4.336709 
4.338802 
4.348834 
4.348310 
4.345708 
4.340989 
4.329081 
4.333107 
4.323090 
4.304220 
4.319001 
4.322009 
4.310186 
4.309106 
4.304117 
4.305713 
4.323958 
4.321704 
4.319379 
4.322831 
4.313394 
4.307917 
4.316108 
4.306332 
4.326933 
4.321761 
4.320937 
4.317626 
4.319880 
4.317373 
4.321222 
4.330211 
4.335491 
4.338102 
4.334447 
4.331528 
4.344802 
4.363098 
4.347025 
4.348294 
4.348155 
4.337920 
4.343230 
4.346941 
4.331936 
4.338751 
4.333518 
4.345786 
4.340347 
4.336270 
4.338905 
4.340569 
4.353066 
4.355118 
4.352453 
4.356094 
4.357819 
4.366938 
4.373846 
4.378063 
4.399523 
4.383717 
4.386668 
4.398128 
4.382836 
4.393291 
4.383912 
4.399162 
4.395556 
4.386144 
4.391750 
4.375913 
4.393419 
4.387795 
4.394689 
4.392461 
4.389315 
4.371766 
4.376718 
4.366673 
4.384919 
4.395642 
4.413815 
4.395505 
4.392428 
4.369360 
4.374659 
4.370594 
4.387816 
4.370501 
4.359075 
4.366082 
4.356854 
4.362154 
4.369777 
4.375941 
4.385845 
4.381920 
4.383079 
4.373961 
4.387109 
4.380010 
4.378078 
4.377437 
4.400393 
4.572986 
4.641848 
4.654617 
4.635822 
4.606791 
4.561710 
4.530882 
4.503604 
4.480282 
4.451892 
4.426163 
4.396998 
4.375265 
4.351167 
4.363277 
4.325150 
4.319747 
4.320250 
4.312846 
4.320175 
4.313750 
4.323481 
4.320474 
4.324487 
4.333366 
4.345322 
4.351315 
4.348385 
4.355970 
4.359782 
4.372081 
4.373625 
4.370582 
4.374482 
4.362728 
4.368379 
4.362039 
4.384187 
4.363718 
4.336741 
4.356535 
4.344119 
4.352070 
4.357412 
4.374094 
4.374277 
4.360148 
4.365231 
4.354895 
4.365868 
4.387578 
4.425681 
4.409957 
4.401656 
4.374351 
4.355767 
4.349666 
4.344607 
4.338607 
4.346357 
4.350547 
4.342821 
4.351200 
4.355898 
4.353334 
4.347873 
4.346651 
4.351008 
4.345965 
4.354259 
4.347965 
4.332411 
4.329787 
4.344680 
4.352558 
4.345193 
4.340868 
4.348935 
4.356572 
4.344342 
4.346693 
4.352654 
4.350545 
4.351072 
4.362906 
4.345657 
4.354661 
4.370937 
4.370538 
4.381129 
4.386143 
4.382280 
4.395338 
4.372654 
4.391707 
4.392858 
4.404113 
4.403835 
4.419030 
4.422117 
4.416331 
4.431252 
4.431123 
4.421473 
4.427107 
4.433070 
4.416814 
4.407150 
4.416119 
4.387577 
4.387608 
4.393970 
4.401106 
4.389884 
4.396648 
4.381920 
4.381245 
4.392839 
4.420949 
4.424675 
4.433576 
4.445333 
4.444632 
4.453130 
4.440091 
4.436386 
4.449901 
4.441924 
4.449763 
4.436048 
4.442774 
4.441122 
4.447064 
4.441566 
4.442477 
4.443264 
4.430928 
4.438796 
4.441971 
4.438483 
4.429063 
4.429841 
4.438783 
4.429181 
4.422114 
4.417660 
4.411361 
4.405416 
4.392593 
4.399623 
4.387369 
4.376851 
4.379919 
4.389550 
4.387885 
4.389258 
4.389972 
4.381407 
4.408520 
4.421486 
4.432820 
4.416640 
4.431932 
4.456039 
4.462051 
4.461167 
4.461538 
4.466316 
4.482733 
4.488248 
4.472756 
4.470860 
4.460315 
4.460262 
4.452734 
4.454409 
4.450314 
4.453556 
4.457843 
4.451569 
4.435838 
4.438830 
4.438829 
4.425213 
4.423725 
4.419527 
4.429147 
4.413304 
4.422712 
4.417406 
4.409033 
4.413771 
4.408618 
4.414269 
4.455118 
4.483309 
4.501615 
4.495742 
4.466162 
4.441153 
4.411209 
4.395451 
4.378559 
4.348053 
4.344595 
4.346500 
4.338422 
4.353521 
4.345450 
4.339577 
4.343239 
4.337082 
4.347107 
4.343210 
4.336665 
4.359733 
4.356307 
4.345915 
4.360149 
4.345068 
4.347730 
4.362263 
4.360565 
4.362353 
4.363094 
4.463699 
4.475784 
4.454054 
4.410966 
4.340112 
4.341103 
4.379357 
4.373881 
4.381209 
4.378711 
4.387592 
4.379479 
4.375034 
4.368325 
4.375718 
4.388412 
4.375255 
4.364857 
4.383699 
4.385841 
4.406798 
4.411012 
4.404915 
4.403512 
4.402430 
4.406113 
4.404817 
4.403397 
4.399559 
4.418053 
4.408824 
4.392047 
4.397377 
4.385233 
4.383712 
4.385979 
4.381931 
4.379656 
4.356745 
4.365279 
4.387198 
4.374927 
4.372717 
4.367806 
4.360866 
4.363176 
4.371831 
4.354280 
4.363429 
4.359034 
4.371890 
4.380387 
4.380855 
4.384626 
4.362445 
4.365976 
4.365535 
4.371160 
4.380326 
4.382505 
4.363027 
4.380480 
4.378296 
4.374906 
4.376403 
4.367755 
4.360874 
4.365698 
4.372313 
4.388509 
4.368916 
4.383679 
4.376581 
4.389125 
4.389510 
4.397139 
4.408824 
4.393883 
4.406209 
4.405054 
4.402756 
4.394553 
4.389451 
4.388252 
4.393261 
4.406180 
4.414904 
4.412394 
4.422029 
4.426375 
4.415404 
4.416677 
4.417846 
4.406034 
4.408788 
4.410546 
4.393178 
4.400123 
4.400563 
4.402669 
4.412806 
4.404058 
4.407048 
4.403167 
4.399270 
4.403218 
4.405855 
4.401609 
4.404711 
4.416075 
4.391089 
4.388983 
4.388486 
4.390489 
4.359408 
4.370261 
4.376266 
4.358167 
4.373503 
4.362395 
4.369660 
4.376942 
4.386731 
4.365134 
4.371782 
4.435071 
4.489207 
4.472800 
4.493071 
4.508816 
4.497289 
4.472784 
4.454012 
4.437560 
4.417928 
4.440581 
4.473670 
4.436127 
4.405108 
4.413043 
4.389106 
4.397113 
4.386037 
4.388526 
4.403179 
4.394807 
4.376698 
4.393408 
4.388380 
4.405574 
4.372309 
4.412484 
4.396744 
4.375014 
4.343038 
4.341242 
4.361792 
4.340351 
4.345425 
4.352123 
4.366447 
4.371198 
4.365025 
4.379617 
4.370819 
4.365357 
4.360508 
4.351443 
4.362221 
4.377836 
4.371404 
4.387238 
4.395162 
4.403151 
4.385863 
4.383825 
4.396068 
4.387828 
4.392108 
4.418081 
4.396002 
4.392645 
4.397640 
4.403389 
4.411751 
4.414189 
4.407077 
4.418569 
4.425576 
4.414398 
4.420631 
4.403462 
4.397601 
4.403575 
4.397887 
4.401114 
4.412757 
4.422266 
4.430689 
4.431522 
4.441115 
4.437216 
4.428526 
4.433521 
4.418783 
4.413194 
4.417447 
4.413591 
4.415699 
4.425740 
4.436644 
4.430790 
4.418094 
4.429553 
4.433393 
4.430098 
4.426201 
4.428007 
4.438390 
4.483774 
4.592290 
4.536048 
4.513217 
4.464817 
4.448409 
4.440763 
4.418509 
4.417526 
4.516329 
4.671977 
4.716335 
4.720859 
4.699701 
4.659567 
4.633471 
4.583665 
4.523393 
4.485078 
4.451520 
4.429414 
4.418215 
4.389594 
4.386904 
4.396484 
4.394180 
4.386709 
4.400242 
4.444174 
4.452957 
4.463957 
4.466991 
4.471397 
4.487582 
4.455320 
4.461589 
4.473152 
4.477523 
4.481572 
4.475458 
4.470361 
4.487414 
4.481587 
4.481877 
4.470377 
4.472723 
4.447186 
4.426152 
4.400251 
4.390041 
4.404422 
4.391936 
4.394804 
4.400133 
4.414274 
4.402084 
4.404493 
4.410068 
4.417956 
4.422905 
4.414468 
4.406534 
4.391087 
4.384091 
4.386385 
4.392516 
4.398167 
4.415589 
4.421270 
4.422904 
4.419446 
4.414472 
4.397683 
4.387442 
4.375811 
4.378781 
4.395277 
4.392830 
4.396843 
4.399171 
4.393959 
4.390216 
4.398911 
4.393555 
4.410833 
4.407157 
4.417732 
4.411313 
4.421210 
4.416594 
4.413512 
4.417559 
4.432467 
4.448199 
4.447609 
4.459605 
4.471031 
4.469517 
4.482759 
4.473739 
4.474280 
4.473558 
4.475928 
4.467679 
4.455740 
4.463960 
4.453730 
4.450507 
4.434473 
4.441040 
4.430127 
4.436828 
4.436140 
4.435052 
4.437082 
4.435228 
4.423787 
4.428627 
4.433668 
4.424782 
4.418827 
4.428846 
4.424024 
4.437098 
4.434530 
4.422110 
4.416140 
4.404227 
4.394395 
4.388767 
4.385470 
4.384900 
4.381628 
4.397796 
4.394110 
4.407988 
4.394850 
4.402285 
4.400767 
4.402653 
4.419803 
4.412193 
4.416182 
4.421888 
4.428158 
4.432250 
4.440750 
4.446106 
4.430651 
4.432061 
4.420390 
4.441269 
4.442707 
4.438574 
4.441058 
4.432984 
4.435874 
4.426254 
4.446346 
4.456474 
4.451086 
4.471694 
4.488370 
4.476036 
4.465442 
4.439488 
4.403506 
4.419364 
4.521725 
4.507674 
4.461111 
4.426447 
4.416071 
4.415219 
4.408311 
4.416093 
4.406804 
4.429461 
4.436670 
4.444281 
4.433641 
4.440091 
4.437685 
4.448470 
4.443307 
4.418069 
4.440048 
4.434853 
4.432455 
4.434562 
4.442884 
4.438683 
4.443838 
4.453573 
4.452249 
4.461819 
4.470211 
4.482670 
4.482728 
4.481958 
4.470038 
4.474092 
4.470693 
4.467167 
4.465851 
4.466168 
4.466728 
4.478904 
4.476410 
4.462698 
4.456831 
4.457308 
4.466156 
4.506653 
4.498962 
4.521161 
4.519166 
4.518035 
4.508394 
4.507998 
4.511865 
4.495987 
4.492937 
4.493657 
4.491118 
4.477303 
4.480126 
4.466391 
4.461696 
4.460066 
4.457459 
4.436873 
4.425674 
4.450529 
4.617198 
4.620205 
4.654917 
4.641590 
4.645178 
4.596285 
4.585412 
4.571168 
4.577320 
4.565085 
4.559350 
4.535189 
4.519325 
4.503297 
4.475348 
4.465770 
4.462898 
4.440928 
4.429627 
4.426587 
4.407987 
4.406775 
4.390578 
4.393165 
4.390940 
4.375099 
4.380690 
4.385317 
4.397536 
4.405283 
4.390872 
4.387379 
4.397781 
4.396254 
4.421166 
4.422577 
4.456927 
4.522195 
4.554965 
4.582494 
4.588313 
4.600311 
4.583576 
4.570403 
4.545369 
4.515593 
4.477378 
4.442610 
4.426566 
4.464613 
4.477695 
4.479062 
4.469734 
4.453816 
4.460583 
4.453243 
4.458723 
4.454203 
4.446867 
4.446524 
4.459176 
4.436244 
4.429303 
4.437778 
4.424351 
4.429164 
4.407972 
4.421719 
4.456675 
4.463090 
4.447444 
4.454386 
4.431636 
4.441937 
4.450494 
4.441281 
4.431161 
4.420570 
4.441715 
4.439724 
4.442574 
4.446835 
4.434911 
4.439345 
4.421046 
4.430544 
4.412352 
4.444394 
4.439419 
4.429161 
4.448804 
4.436148 
4.427435 
4.419065 
4.409062 
4.399339 
4.391703 
4.397213 
4.398376 
4.395952 
4.396832 
4.404952 
4.398391 
4.407321 
4.404497 
4.407714 
4.410217 
4.406226 
4.426172 
4.419233 
4.427610 
4.416836 
4.428987 
4.425531 
4.418614 
4.432291 
4.449405 
4.436918 
4.424859 
4.425064 
4.429672 
4.427499 
4.423275 
4.409352 
4.411490 
4.399055 
4.401893 
4.410459 
4.389526 
4.391088 
4.396758 
4.414091 
4.394694 
4.398397 
4.400176 
4.403912 
4.408273 
4.398477 
4.410024 
4.413508 
4.415960 
4.412879 
4.404781 
4.407718 
4.406820 
4.413162 
4.408066 
4.414445 
4.403171 
4.408451 
4.415722 
4.417809 
4.405992 
4.417292 
4.412458 
4.408578 
4.400547 
4.400491 
4.400593 
4.407444 
4.397561 
4.402968 
4.400822 
4.493976 
4.540676 
4.587021 
4.597030 
4.593000 
4.600976 
4.585418 
4.608132 
4.622242 
4.583828 
4.574811 
4.505794 
4.439020 
4.388340 
4.343364 
4.332390 
4.350036 
4.384941 
4.395391 
4.384286 
4.386723 
4.393900 
4.386512 
4.370235 
4.378864 
4.380029 
4.390854 
4.390722 
4.384801 
4.377654 
4.391372 
4.393822 
4.411155 
4.411622 
4.408777 
4.412034 
4.409211 
4.414273 
4.415506 
4.414498 
4.427559 
4.413626 
4.416136 
4.418289 
4.404879 
4.409408 
4.405325 
4.416532 
4.407571 
4.402711 
4.398534 
4.399366 
4.402964 
4.394220 
4.401205 
4.404751 
4.413208 
4.400314 
4.402419 
4.393763 
4.397059 
4.402411 
4.399696 
4.400983 
4.396239 
4.395817 
4.405457 
4.400122 
4.418398 
4.423569 
4.416025 
4.414407 
4.396905 
4.409824 
4.396753 
4.407114 
4.409683 
4.402529 
4.407847 
4.402470 
4.401225 
4.407655 
4.402751 
4.417125 
4.432287 
4.414969 
4.414485 
4.475526 
4.497455 
4.494139 
4.453662 
4.429648 
4.412477 
4.395719 
4.396245 
4.403036 
4.384435 
4.387252 
4.395547 
4.388194 
4.387335 
4.398765 
4.405039 
4.623544 
4.635127 
4.612565 
4.578751 
4.529533 
4.434912 
4.408469 
4.394854 
4.395645 
4.397498 
4.398232 
4.396656 
4.393051 
4.388701 
4.391576 
4.384067 
4.376647 
4.366827 
4.354063 
4.357184 
4.359089 
4.364407 
4.357271 
4.367796 
4.362011 
4.361206 
4.361015 
4.359912 
4.377795 
4.383821 
4.367296 
4.375407 
4.381500 
4.406477 
4.378104 
4.398998 
4.402600 
4.406023 
4.400574 
4.409214 
4.405582 
4.397859 
4.398881 
4.415265 
4.417870 
4.415643 
4.411240 
4.414276 
4.405434 
4.404669 
4.423410 
4.414020 
4.411227 
4.411528 
4.418393 
4.405099 
4.411514 
4.416375 
4.418659 
4.410904 
4.408451 
4.402369 
4.412378 
4.407091 
4.415661 
4.403873 
4.402029 
4.405192 
4.405403 
4.407862 
4.394961 
4.402549 
4.417203 
4.422648 
4.413208 
4.411592 
4.418694 
4.425893 
4.424002 
4.407064 
4.414649 
4.412079 
4.417626 
4.415204 
4.417248 
4.408954 
4.405094 
4.420521 
4.401744 
4.422985 
4.427694 
4.418289 
4.417867 
4.438042 
4.463095 
4.457796 
4.443701 
4.490778 
4.493209 
4.576387 
4.651804 
4.651757 
4.634009 
4.661453 
4.623610 
4.621988 
4.625918 
4.618109 
4.595902 
4.563715 
4.566186 
4.549934 
4.540547 
4.517091 
4.501612 
4.487113 
4.474852 
4.444724 
4.440729 
4.434252 
4.417545 
4.412618 
4.401901 
4.390333 
4.393343 
4.370040 
4.366013 
4.371534 
4.364747 
4.364493 
4.371779 
4.368721 
4.379913 
4.366088 
4.364610 
4.365551 
4.366565 
4.363337 
4.370788 
4.362052 
4.384696 
4.391394 
4.393316 
4.385522 
4.400043 
4.411116 
4.408958 
4.409011 
4.400045 
4.477830 
4.500425 
4.478484 
4.463584 
4.451292 
4.439403 
4.431878 
4.439151 
4.434423 
4.445548 
4.450106 
4.459305 
4.446536 
4.441911 
4.449362 
4.456203 
4.444149 
4.442475 
4.436481 
4.432433 
4.437477 
4.423583 
4.431234 
4.440478 
4.436436 
4.431088 
4.426277 
4.422685 
4.422122 
4.426454 
4.428818 
4.441685 
4.433703 
4.440233 
4.446456 
4.451871 
4.501461 
4.530834 
4.548477 
4.537057 
4.516947 
4.505928 
4.474903 
4.450711 
4.433366 
4.413675 
4.407045 
4.397513 
4.386711 
4.396823 
4.445868 
4.500888 
4.502024 
4.475265 
4.453644 
4.444556 
4.444182 
4.427904 
4.399994 
4.378496 
4.359742 
4.345464 
4.359148 
4.340665 
4.340627 
4.347900 
4.359927 
4.357539 
4.353712 
4.354323 
4.363581 
4.362894 
4.400153 
4.444684 
4.478559 
4.493761 
4.501239 
4.507274 
4.509836 
4.523417 
4.530639 
4.528460 
4.536124 
4.590497 
4.730884 
4.727124 
4.724234 
4.684755 
4.637652 
4.627943 
4.606208 
4.596719 
4.598714 
4.586031 
4.574884 
4.557431 
4.549105 
4.532744 
4.515501 
4.482552 
4.481239 
4.451995 
4.424127 
4.422053 
4.420351 
4.405474 
4.416807 
4.400796 
4.394258 
4.398926 
4.391089 
4.398260 
4.397508 
4.392994 
4.393758 
4.388507 
4.390193 
4.404441 
4.389340 
4.387285 
4.382782 
4.388728 
4.387509 
4.391767 
4.393263 
4.392253 
4.398986 
4.406736 
4.409650 
4.396563 
4.410211 
4.407833 
4.410943 
4.421328 
4.418293 
4.430957 
4.429489 
4.418429 
4.422212 
4.434111 
4.435564 
4.444082 
4.428566 
4.433101 
4.435773 
4.420652 
4.418072 
4.416961 
4.413556 
4.395289 
4.407911 
4.396268 
4.400289 
4.390393 
4.392809 
4.395915 
4.391782 
4.390330 
4.382786 
4.396115 
4.400000 
4.385528 
4.390644 
4.394938 
4.402051 
4.392002 
4.391069 
4.402869 
4.398114 
4.392162 
4.387753 
4.402265 
4.404497 
4.427390 
4.436579 
4.439493 
4.439725 
4.445882 
4.439968 
4.450308 
4.446344 
4.448362 
4.437499 
4.431005 
4.421239 
4.429463 
4.411677 
4.400456 
4.396140 
4.397771 
4.397420 
4.391183 
4.395151 
4.385250 
4.401480 
4.404435 
4.411774 
4.418766 
4.418076 
4.416579 
4.406364 
4.403774 
4.410722 
4.409335 
4.401834 
4.410072 
4.411534 
4.403517 
4.423787 
4.420323 
4.429803 
4.423727 
4.427389 
4.438291 
4.433162 
4.444682 
4.445199 
4.435473 
4.429869 
4.435866 
4.424505 
4.441039 
4.435887 
4.460336 
4.462922 
4.468761 
4.457759 
4.447515 
4.439911 
4.442040 
4.449487 
4.466108 
4.482030 
4.476748 
4.489248 
4.483822 
4.496488 
4.484609 
4.476683 
4.471111 
4.468995 
4.464315 
4.451802 
4.436198 
4.452445 
4.441948 
4.443144 
4.437059 
4.435619 
4.434383 
4.429573 
4.440829 
4.447533 
4.438538 
4.424872 
4.436986 
4.419426 
4.418635 
4.405724 
4.405943 
4.390793 
4.388265 
4.382011 
4.390086 
4.398411 
4.393173 
4.387486 
4.406207 
4.415755 
4.426424 
4.424903 
4.530228 
4.658143 
4.685326 
4.650445 
4.581383 
4.488787 
4.364299 
4.427886 
4.430147 
4.448357 
4.435107 
4.440476 
4.423500 
4.426235 
4.420368 
4.408652 
4.408862 
4.421848 
4.431323 
4.442942 
4.429339 
4.434623 
4.424198 
4.426048 
4.401495 
4.407116 
4.402050 
4.410828 
4.399879 
4.400373 
4.414165 
4.399416 
4.384779 
4.401378 
4.393943 
4.395548 
4.397135 
4.389641 
4.390659 
4.408683 
4.400701 
4.400464 
4.420770 
4.423146 
4.418161 
4.425248 
4.411616 
4.419739 
4.409391 
4.411338 
4.410392 
4.404037 
4.413641 
4.423881 
4.394229 
4.408012 
4.405892 
4.414091 
4.444250 
4.419155 
4.424623 
4.430980 
4.428655 
4.445321 
4.439205 
4.437010 
4.426082 
4.435067 
4.437027 
4.447708 
4.448591 
4.427315 
4.423476 
4.404227 
4.419210 
4.417398 
4.416833 
4.416776 
4.517583 
4.721046 
4.845748 
4.903234 
4.885075 
4.826882 
4.718559 
4.616981 
4.569726 
4.553816 
4.563436 
4.559787 
4.549558 
4.547164 
4.534773 
4.524711 
4.495916 
4.470688 
4.463794 
4.446024 
4.450571 
4.448965 
4.443533 
4.413482 
4.421011 
4.382400 
4.368382 
4.376308 
4.458302 
4.668851 
4.695529 
4.678124 
4.679547 
4.629402 
4.571780 
4.451971 
4.404453 
4.350669 
4.339947 
4.308108 
4.299313 
4.279717 
4.267020 
4.256961 
4.256919 
4.253564 
4.279159 
4.290907 
4.332435 
4.367512 
4.381065 
4.390245 
4.401689 
4.412074 
4.433447 
4.440871 
4.433580 
4.433471 
4.426246 
4.423256 
4.412536 
4.418955 
4.425155 
4.422018 
4.433536 
4.429525 
4.430598 
4.414040 
4.400272 
4.400430 
4.394205 
4.410573 
4.415378 
4.422050 
4.460832 
4.483885 
4.487542 
4.479051 
4.457457 
4.456248 
4.474128 
4.461421 
4.457464 
4.459771 
4.445064 
4.458912 
4.456000 
4.444249 
4.428078 
4.415724 
4.420783 
4.408137 
4.395689 
4.393736 
4.396387 
4.396283 
4.385939 
4.379219 
4.385105 
4.392118 
4.368328 
4.378739 
4.395455 
4.391630 
4.399325 
4.388558 
4.390002 
4.382564 
4.384215 
4.389300 
4.391381 
4.379765 
4.389499 
4.393313 
4.376906 
4.373122 
4.368363 
4.353328 
4.359844 
4.368793 
4.364851 
4.364862 
4.371731 
4.389014 
4.389741 
4.384548 
4.392159 
4.397333 
4.387824 
4.395763 
4.421359 
4.434535 
4.443720 
4.436346 
4.438899 
4.446424 
4.446077 
4.452499 
4.427699 
4.449352 
4.459679 
4.454281 
4.454983 
4.440051 
4.445603 
4.461459 
4.477162 
4.457120 
4.471996 
4.475993 
4.475221 
4.472069 
4.462242 
4.474179 
4.465262 
4.466514 
4.484436 
4.510748 
4.507220 
4.564116 
4.612226 
4.616500 
4.617706 
4.601652 
4.597644 
4.595755 
4.583905 
4.578992 
4.586613 
4.582741 
4.570335 
4.569368 
4.577605 
4.561245 
4.554072 
4.565479 
4.555764 
4.555303 
4.557140 
4.557107 
4.557614 
4.548440 
4.556382 
4.549024 
4.547744 
4.540539 
4.560262 
4.563879 
4.545374 
4.547688 
4.539162 
4.536942 
4.522473 
4.519746 
4.524689 
4.506308 
4.514699 
4.522134 
4.516013 
4.526742 
4.523221 
4.527852 
4.518023 
4.511374 
4.506490 
4.513775 
4.503726 
4.493239 
4.515583 
4.504327 
4.496766 
4.511041 
4.510844 
4.529709 
4.509198 
4.513125 
4.492980 
4.499325 
4.480861 
4.478204 
4.475667 
4.462325 
4.464173 
4.445656 
4.459478 
4.459152 
4.447406 
4.452793 
4.466440 
4.467026 
4.461972 
4.454283 
4.453960 
4.441190 
4.453947 
4.451021 
4.446666 
4.452653 
4.451785 
4.446609 
4.452025 
4.482927 
4.491596 
4.497998 
4.492453 
4.481544 
4.495529 
4.493127 
4.493693 
4.484905 
4.479831 
4.463540 
4.461775 
4.451853 
4.447000 
4.443046 
4.446410 
4.436827 
4.443747 
4.432177 
4.434779 
4.427665 
4.424384 
4.442991 
4.434024 
4.445536 
4.443614 
4.434684 
4.436269 
4.437201 
4.430647 
4.433005 
4.413268 
4.423380 
4.419199 
4.418710 
4.435458 
4.431725 
4.443100 
4.450761 
4.436228 
4.433980 
4.468069 
4.637463 
4.739864 
4.780232 
4.772331 
4.737118 
4.698708 
4.657608 
4.583476 
4.497478 
4.489932 
4.489212 
4.488169 
4.467295 
4.463962 
4.442424 
4.446071 
4.438869 
4.418210 
4.406278 
4.425473 
4.411067 
4.413868 
4.426598 
4.430507 
4.423200 
4.444659 
4.455141 
4.463134 
4.467639 
4.462356 
4.438276 
4.434490 
4.420799 
4.431537 
4.448855 
4.466233 
4.474264 
4.459172 
4.466523 
4.468465 
4.467108 
4.451410 
4.447386 
4.459922 
4.461166 
4.460403 
4.451084 
4.451462 
4.456622 
4.456222 
4.455157 
4.443275 
4.456649 
4.451576 
4.467998 
4.475539 
4.469174 
4.464913 
4.454632 
4.457139 
4.453323 
4.458229 
4.445578 
4.460603 
4.457092 
4.440888 
4.438537 
4.438210 
4.427716 
4.422649 
4.430751 
4.433219 
4.448690 
4.448077 
4.443984 
4.427978 
4.433418 
4.415811 
4.410377 
4.422414 
4.433654 
4.440925 
4.526036 
4.551073 
4.556557 
4.548112 
4.537896 
4.510658 
4.480113 
4.447076 
4.388696 
4.392792 
4.452913 
4.441205 
4.438767 
4.428559 
4.436036 
4.422346 
4.426302 
4.418567 
4.430998 
4.436075 
4.427977 
4.436186 
4.420838 
4.423930 
4.406583 
4.415691 
4.416489 
4.422453 
4.440589 
4.435466 
4.441502 
4.446992 
4.443504 
4.433979 
4.428540 
4.437437 
4.444902 
4.449220 
4.440856 
4.426051 
4.405822 
4.407255 
4.410825 
4.410851 
4.409281 
4.427749 
4.441398 
4.427859 
4.425287 
4.414764 
4.391436 
4.396421 
4.405061 
4.419954 
4.435668 
4.428541 
4.434654 
4.446690 
4.441561 
4.444188 
4.432207 
4.446565 
4.437177 
4.441552 
4.441675 
4.427903 
4.438071 
4.448014 
4.456537 
4.420067 
4.423400 
4.420500 
4.424841 
4.400055 
4.396862 
4.393880 
4.397100 
4.400535 
4.403806 
4.435404 
4.408811 
4.400579 
4.397672 
4.419818 
4.449531 
4.434421 
4.446496 
4.441449 
4.443938 
4.435108 
4.427964 
4.421145 
4.437522 
4.418871 
4.465967 
4.480480 
4.487261 
4.518212 
4.510779 
4.520267 
4.514380 
4.512721 
4.479961 
4.493040 
4.469232 
4.483304 
4.487012 
4.499073 
4.489026 
4.483708 
4.488735 
4.494051 
4.494658 
4.495144 
4.514759 
4.493242 
4.472997 
4.478363 
4.482672 
4.461241 
4.467730 
4.454147 
4.471440 
4.471380 
4.457702 
4.467038 
4.461973 
4.456531 
4.458004 
4.438045 
4.432731 
4.405322 
4.419829 
4.421764 
4.444227 
4.464981 
4.463279 
4.468911 
4.470916 
4.474440 
4.476557 
4.492142 
4.489685 
4.521883 
4.524199 
4.532297 
4.523588 
4.540386 
4.523303 
4.522767 
4.508045 
4.504815 
4.506191 
4.517724 
4.530682 
4.520291 
4.503145 
4.505726 
4.520259 
4.532286 
4.533997 
4.524732 
4.539054 
4.559925 
4.563815 
4.553394 
4.556074 
4.554514 
4.573561 
4.576772 
4.598764 
4.628353 
4.667011 
4.698651 
4.736187 
4.751150 
4.752891 
4.737818 
4.747985 
4.743145 
4.738815 
4.740157 
4.736605 
4.734095 
4.703018 
4.712557 
4.716750 
4.707583 
4.721698 
4.705224 
4.701472 
4.692077 
4.716961 
4.716678 
4.698791 
4.690972 
4.692342 
4.687113 
4.690627 
4.687422 
4.674430 
4.658967 
4.651536 
4.662564 
4.663380 
4.665485 
4.661238 
4.666001 
4.671388 
4.668351 
4.652226 
4.661998 
4.657360 
4.660703 
4.663634 
4.657689 
4.655271 
4.645195 
4.641711 
4.657997 
4.656568 
4.663179 
4.659617 
4.672596 
4.661048 
4.656917 
4.662544 
4.646741 
4.634355 
4.639220 
4.633185 
4.629225 
4.645996 
4.648191 
4.684939 
4.691398 
4.675024 
4.670001 
4.665496 
4.657141 
4.646717 
4.613975 
4.618546 
4.601645 
4.587716 
4.565797 
4.537568 
4.515893 
4.526804 
4.506244 
4.482665 
4.458231 
4.453986 
4.441429 
4.418597 
4.400370 
4.385547 
4.397361 
4.412797 
4.419032 
4.443246 
4.410613 
4.422165 
4.436608 
4.419881 
4.472198 
4.431044 
4.448880 
4.443464 
4.439544 
4.462614 
4.466832 
4.450899 
4.448380 
4.461361 
4.461814 
4.465959 
4.463470 
4.480247 
4.488044 
4.497817 
4.514911 
4.498064 
4.493741 
4.523197 
4.530093 
4.531376 
4.517464 
4.525725 
4.518870 
4.528474 
4.533987 
4.509266 
4.510236 
4.507435 
4.514841 
4.514371 
4.496575 
4.501203 
4.489074 
4.482543 
4.481189 
4.472893 
4.488496 
4.478444 
4.477027 
4.483473 
4.524294 
4.503128 
4.515019 
4.511679 
4.518240 
4.521849 
4.515868 
4.500658 
4.515706 
4.535081 
4.517704 
4.526702 
4.533402 
4.524779 
4.529216 
4.507116 
4.513627 
4.517218 
4.530377 
4.502098 
4.510260 
4.501543 
4.497198 
4.483069 
4.497097 
4.492706 
4.491144 
4.491904 
4.490679 
4.495108 
4.483684 
4.482928 
4.480257 
4.491306 
4.494054 
4.495005 
4.514037 
4.582790 
4.723482 
4.791610 
4.818128 
4.840839 
